,ECG_peaks
0,0.0
1,0.643000602722168
2,1.282001256942749
3,1.9180018901824951
4,2.5490026473999023
5,3.1840031147003174
6,3.8240039348602295
7,4.4670045375823975
8,5.1130051612854
9,5.756005764007568
10,6.403006315231323
11,7.044007062911987
12,7.681007623672485
13,8.315008401870728
14,8.947009086608887
15,9.583009719848633
16,10.222010374069214
17,10.867010831832886
18,11.509011507034302
19,12.156012296676636
20,12.80301284790039
21,13.449013471603394
22,14.087014198303223
23,14.726014852523804
24,15.373015403747559
25,16.017016172409058
26,16.66201686859131
27,17.303017377853394
28,17.947018146514893
29,18.57701873779297
30,19.202019214630127
31,19.82401990890503
32,20.44502067565918
33,21.07102131843567
34,21.69802188873291
35,22.334022521972656
36,22.96802306175232
37,23.604023694992065
38,24.24002432823181
39,24.874025106430054
40,25.5100257396698
41,26.146026372909546
42,26.783026933670044
43,27.426027536392212
44,28.068028211593628
45,28.71302890777588
46,29.361029624938965
47,30.006030321121216
48,30.65203094482422
49,31.295031547546387
50,31.93603205680847
51,32.57803273200989
52,33.2110333442688
53,33.836034059524536
54,34.47803473472595
55,35.12803530693054
56,35.775036096572876
57,36.419036626815796
58,37.05903744697571
59,37.69403791427612
60,38.328038692474365
61,38.95703935623169
62,39.581039905548096
63,40.20004057884216
64,40.810041189193726
65,41.42604184150696
66,42.04604244232178
67,42.671042919158936
68,43.29904365539551
69,43.924044370651245
70,44.55504488945007
71,45.1930456161499
72,45.833046197891235
73,46.46804690361023
74,47.098047494888306
75,47.72804808616638
76,48.351048707962036
77,48.98104929924011
78,49.60104990005493
79,50.23305058479309
80,50.85805130004883
81,51.495051860809326
82,52.14005255699158
83,52.78105330467224
84,53.42405390739441
85,54.059054374694824
86,54.692055225372314
87,55.324055671691895
88,55.95305633544922
89,56.584057092666626
90,57.206557750701904
91,57.8290581703186
92,58.45205879211426
93,59.06705951690674
94,59.66606020927429
95,60.26006078720093
96,60.85006141662598
97,61.434062004089355
98,62.0170624256134
99,62.59506297111511
100,63.17206358909607
101,63.74706435203552
102,64.32106471061707
103,64.89806532859802
104,65.48306608200073
105,66.07706665992737
106,66.66706728935242
107,67.26006770133972
108,67.84806847572327
109,68.43806886672974
110,69.0240695476532
111,69.60507011413574
112,70.18607068061829
113,70.76607131958008
114,71.34407186508179
115,71.9220724105835
116,72.49507308006287
117,73.0650737285614
118,73.6340742111206
119,74.21207475662231
120,74.79107546806335
121,75.36907601356506
122,75.94907665252686
123,76.52807712554932
124,77.10207772254944
125,77.67707824707031
126,78.24707889556885
127,78.81307935714722
128,79.37808012962341
129,79.94608068466187
130,80.51608109474182
131,81.09108185768127
132,81.6670823097229
133,82.24508285522461
134,82.82408356666565
135,83.40208411216736
136,83.97908473014832
137,84.55808520317078
138,85.13708591461182
139,85.71508646011353
140,86.29408693313599
141,86.87408757209778
142,87.45308804512024
143,88.02908873558044
144,88.61808943748474
145,89.20308995246887
146,89.79709053039551
147,90.38709115982056
148,90.97509169578552
149,91.55809235572815
150,92.1480929851532
151,92.73709344863892
152,93.32409405708313
153,93.90509462356567
154,94.48009514808655
155,95.06209588050842
156,95.6460964679718
157,96.23209691047668
158,96.82009768486023
159,97.41009831428528
160,98.00409889221191
161,98.5990993976593
162,99.19210004806519
163,99.78210067749023
164,100.3851010799408
165,100.99110174179077
166,101.59510231018066
167,102.1961030960083
168,102.79710364341736
169,103.39710426330566
170,104.0001049041748
171,104.60310554504395
172,105.21110606193542
173,105.8191065788269
174,106.42910718917847
175,107.04210782051086
176,107.64710855484009
177,108.25710916519165
178,108.8801097869873
179,109.5061104297638
180,110.12611103057861
181,110.74911165237427
182,111.36411237716675
183,111.9801127910614
184,112.60311341285706
185,113.22311425209045
186,113.84411478042603
187,114.46411538124084
188,115.08111596107483
189,115.70711660385132
190,116.33911728858948
191,116.97211790084839
192,117.60711860656738
193,118.23511910438538
194,118.86311984062195
195,119.51112055778503
196,120.20112109184265
197,120.877121925354
198,121.54112243652344
199,122.19812321662903
200,122.84812378883362
201,123.48212456703186
202,124.13162517547607
203,124.78112578392029
204,125.42612648010254
205,126.05612707138062
206,126.69912767410278
207,127.3411283493042
208,127.9761290550232
209,128.60712957382202
210,129.24013018608093
211,129.86913084983826
212,130.49613165855408
213,131.12413215637207
214,131.75413274765015
215,132.38213348388672
216,133.02213406562805
217,133.66213464736938
218,134.30313539505005
219,134.94213604927063
220,135.58813667297363
221,136.23813724517822
222,136.8901379108429
223,137.53713870048523
224,138.1801393032074
225,138.82013988494873
226,139.45314049720764
227,140.0961413383484
228,140.73814177513123
229,141.37414264678955
230,142.00414323806763
231,142.64414381980896
232,143.29014444351196
233,143.93414521217346
234,144.57514572143555
235,145.21214628219604
236,145.8571469783783
237,146.51114773750305
238,147.16514825820923
239,147.81614899635315
240,148.46714973449707
241,149.1251504421234
242,149.79115104675293
243,150.45515179634094
244,151.11615228652954
245,151.77615308761597
246,152.4341537952423
247,153.10115432739258
248,153.76815509796143
249,154.4311556816101
250,155.09515643119812
251,155.75115704536438
252,156.4081575870514
253,157.06515836715698
254,157.71915912628174
255,158.36815977096558
256,159.0121603012085
257,159.66416096687317
258,160.31116151809692
259,160.95916223526
260,161.60416293144226
261,162.24716353416443
262,162.88516426086426
263,163.54016494750977
264,164.20716547966003
265,164.87616634368896
266,165.5401668548584
267,166.1951675415039
268,166.84016823768616
269,167.478168964386
270,168.1111695766449
271,168.75017023086548
272,169.3831708431244
273,170.01917147636414
274,170.66117215156555
275,171.32017278671265
276,171.98317337036133
277,172.6481740474701
278,173.31117463111877
279,173.97417545318604
280,174.63317608833313
281,175.29517674446106
282,175.94317746162415
283,176.58017802238464
284,177.21917867660522
285,177.85417938232422
286,178.4821798801422
287,179.10718059539795
288,179.74418115615845
289,180.3781819343567
290,181.01218247413635
291,181.64918303489685
292,182.27318382263184
293,182.89518427848816
294,183.5161850452423
295,184.13718557357788
296,184.75918626785278
297,185.38218688964844
298,186.00218749046326
299,186.627188205719
300,187.2601888179779
301,187.89618945121765
302,188.5411901473999
303,189.19319081306458
304,189.8421914577484
305,190.49319195747375
306,191.13519263267517
307,191.79419326782227
308,192.4611940383911
309,193.12119460105896
310,193.77619528770447
311,194.42619609832764
312,195.0691967010498
313,195.7061972618103
314,196.3501980304718
315,196.9911985397339
316,197.62719917297363
317,198.26119995117188
318,198.89320063591003
319,199.5232012271881
320,200.16120171546936
321,200.79820251464844
322,201.43920302391052
323,202.0762038230896
324,202.71920442581177
325,203.37320494651794
326,204.02920579910278
327,204.68120646476746
328,205.3322069644928
329,205.9762077331543
330,206.61220836639404
331,207.24220895767212
332,207.87520956993103
333,208.50821018218994
334,209.14121079444885
335,209.7772114276886
336,210.4102120399475
337,211.04021286964417
338,211.66521334648132
339,212.2892141342163
340,212.91421461105347
341,213.54621529579163
342,214.1742160320282
343,214.80121660232544
344,215.43021726608276
345,216.06021785736084
346,216.6942183971405
347,217.32321906089783
348,217.9512197971344
349,218.5772204399109
350,219.20822095870972
351,219.83722162246704
352,220.4692223072052
353,221.10722303390503
354,221.74722361564636
355,222.38622426986694
356,223.02122497558594
357,223.65722560882568
358,224.29322624206543
359,224.92922687530518
360,225.560227394104
361,226.18722796440125
362,226.8212287425995
363,227.45222926139832
364,228.08323001861572
365,228.71023058891296
366,229.33323121070862
367,229.96723175048828
368,230.60623240470886
369,231.25023317337036
370,231.88723373413086
371,232.52623438835144
372,233.1582350730896
373,233.78823566436768
374,234.41623640060425
375,235.05123710632324
376,235.68423771858215
377,236.31423830986023
378,236.94323897361755
379,237.5812394618988
380,238.22124028205872
381,238.86424088478088
382,239.50524139404297
383,240.15524220466614
384,240.81024289131165
385,241.46424341201782
386,242.11524415016174
387,242.75974488258362
388,243.4042453765869
389,244.04624605178833
390,244.6742467880249
391,245.30124735832214
392,245.92524790763855
393,246.55424857139587
394,247.18824911117554
395,247.81924986839294
396,248.44725060462952
397,249.06725120544434
398,249.69625186920166
399,250.33325242996216
400,250.9732530117035
401,251.60925364494324
402,252.2412543296814
403,252.87225484848022
404,253.4962556362152
405,254.12925624847412
406,254.76725697517395
407,255.40425753593445
408,256.0402581691742
409,256.6802587509155
410,257.3282594680786
411,257.97326016426086
412,258.61926078796387
413,259.2612614631653
414,259.90826201438904
415,260.5582628250122
416,261.2022633552551
417,261.8462641239166
418,262.48826456069946
419,263.13626527786255
420,263.78626585006714
421,264.4342665672302
422,265.0802671909332
423,265.7192678451538
424,266.3592686653137
425,266.99226927757263
426,267.62526988983154
427,268.25327038764954
428,268.8832712173462
429,269.5072717666626
430,270.12127232551575
431,270.73427295684814
432,271.3462736606598
433,271.98027420043945
434,272.62427496910095
435,273.2682754993439
436,273.9082760810852
437,274.55327677726746
438,275.1912775039673
439,275.83927822113037
440,276.4872786998749
441,277.12827944755554
442,277.76528000831604
443,278.39428067207336
444,279.02528142929077
445,279.663281917572
446,280.3062825202942
447,280.9412832260132
448,281.57828402519226
449,282.21728444099426
450,282.860285282135
451,283.5052857398987
452,284.15128660202026
453,284.79228711128235
454,285.4302878379822
455,286.07328844070435
456,286.72428917884827
457,287.37428975105286
458,288.01829051971436
459,288.65729093551636
460,289.30329179763794
461,289.9482922554016
462,290.590292930603
463,291.2292935848236
464,291.86729431152344
465,292.5032949447632
466,293.13329553604126
467,293.76129627227783
468,294.3892967700958
469,295.03129744529724
470,295.6742980480194
471,296.32129883766174
472,296.966299533844
473,297.6073000431061
474,298.2473006248474
475,298.88130140304565
476,299.5193018913269
477,300.15530252456665
478,300.791303396225
479,301.4263038635254
480,302.06030464172363
481,302.6903052330017
482,303.3253059387207
483,303.9573063850403
484,304.58930706977844
485,305.228307723999
486,305.8723084926605
487,306.5133090019226
488,307.15130972862244
489,307.78631043434143
490,308.41731095314026
491,309.06331157684326
492,309.70631217956543
493,310.3513128757477
494,310.98831367492676
495,311.62031412124634
496,312.24931478500366
497,312.8813154697418
498,313.53031611442566
499,314.17831683158875
500,314.82231736183167
501,315.4603180885315
502,316.09431862831116
503,316.7263193130493
504,317.3543200492859
505,317.9818205833435
506,318.6093213558197
507,319.2353219985962
508,319.8543224334717
509,320.47132301330566
510,321.09532380104065
511,321.71732449531555
512,322.3423249721527
513,322.96732568740845
514,323.59632635116577
515,324.2323269844055
516,324.87732768058777
517,325.52232813835144
518,326.1633288860321
519,326.8003294467926
520,327.4443302154541
521,328.0863308906555
522,328.72833156585693
523,329.36533212661743
524,330.00233268737793
525,330.6413333415985
526,331.28533411026
527,331.92933464050293
528,332.5683352947235
529,333.2113358974457
530,333.8543367385864
531,334.4973373413086
532,335.1343379020691
533,335.7743384838104
534,336.4153392314911
535,337.059339761734
536,337.70434045791626
537,338.34334111213684
538,338.9823417663574
539,339.61334252357483
540,340.2513430118561
541,340.8973436355591
542,341.537344455719
543,342.17534494400024
544,342.8143455982208
545,343.44734621047974
546,344.08534693717957
547,344.72634768486023
548,345.3653483390808
549,346.00134897232056
550,346.6353495121002
551,347.27335023880005
552,347.91035079956055
553,348.54535150527954
554,349.1793520450592
555,349.82035279273987
556,350.46335339546204
557,351.1043539047241
558,351.74235463142395
559,352.3783552646637
560,353.02335596084595
561,353.6703565120697
562,354.3163573741913
563,354.9553577899933
564,355.5913586616516
565,356.22935914993286
566,356.87535977363586
567,357.5173604488373
568,358.1613612174988
569,358.80236172676086
570,359.44636249542236
571,360.0973629951477
572,360.7483637332916
573,361.39736437797546
574,362.04336500167847
575,362.68936562538147
576,363.33336639404297
577,363.97236704826355
578,364.6123676300049
579,365.2543683052063
580,365.9023690223694
581,366.54336953163147
582,367.18037033081055
583,367.8053708076477
584,368.43037152290344
585,369.0713720321655
586,369.72437286376953
587,370.3693735599518
588,371.00737404823303
589,371.642374753952
590,372.27337527275085
591,372.905375957489
592,373.5363767147064
593,374.1643772125244
594,374.7963778972626
595,375.4323785305023
596,376.0713791847229
597,376.71437978744507
598,377.36238050460815
599,378.011381149292
600,378.6613817214966
601,379.3103823661804
602,379.9623830318451
603,380.61438369750977
604,381.2613844871521
605,381.9093849658966
606,382.55238580703735
607,383.1923863887787
608,383.82838702201843
609,384.467387676239
610,385.10938835144043
611,385.748389005661
612,386.38638949394226
613,387.02539014816284
614,387.6683909893036
615,388.3093914985657
616,388.95239210128784
617,389.59439277648926
618,390.2373933792114
619,390.87939405441284
620,391.52139472961426
621,392.1623954772949
622,392.81039595603943
623,393.45939683914185
624,394.10339736938477
625,394.74739813804626
626,395.38639855384827
627,396.03239941596985
628,396.6723999977112
629,397.31540060043335
630,397.956401348114
631,398.602401971817
632,399.24640250205994
633,399.89040327072144
634,400.529403924942
635,401.1664044857025
636,401.810405254364
637,402.4514057636261
638,403.0894064903259
639,403.7264070510864
640,404.365407705307
641,405.0044083595276
642,405.6394090652466
643,406.27840971946716
644,406.9184103012085
645,407.5604109764099
646,408.1994116306305
647,408.836412191391
648,409.4744129180908
649,410.117413520813
650,410.76041412353516
651,411.4004147052765
652,412.03741550445557
653,412.67841601371765
654,413.3194167613983
655,413.95741748809814
656,414.59441804885864
657,415.22741866111755
658,415.86441922187805
659,416.50341987609863
660,417.14142060279846
661,417.7734212875366
662,418.40942192077637
663,419.05042243003845
664,419.68742322921753
665,420.3214237689972
666,420.9604244232178
667,421.60142517089844
668,422.24142575263977
669,422.8814263343811
670,423.5184271335602
671,424.1544277667999
672,424.7924282550812
673,425.43142890930176
674,426.0674295425415
675,426.7024302482605
676,427.3264307975769
677,427.95143151283264
678,428.5944321155548
679,429.23943281173706
680,429.88543343544006
681,430.53543400764465
682,431.1854348182678
683,431.82943534851074
684,432.4684360027313
685,433.09943675994873
686,433.7274372577667
687,434.35243797302246
688,434.9774386882782
689,435.6094391345978
690,436.2454397678375
691,436.88744044303894
692,437.535441160202
693,438.1924419403076
694,438.8464424610138
695,439.50044322013855
696,440.153443813324
697,440.80344438552856
698,441.45144510269165
699,442.0944457054138
700,442.7314465045929
701,443.3664469718933
702,443.99844765663147
703,444.6314482688904
704,445.2564489841461
705,445.8804495334625
706,446.5084502696991
707,447.14045095443726
708,447.76645159721375
709,448.3894522190094
710,449.01045274734497
711,449.6324534416199
712,450.25345396995544
713,450.87545466423035
714,451.4894552230835
715,452.11245584487915
716,452.7404565811157
717,453.36945724487305
718,453.99545788764954
719,454.6254584789276
720,455.2554590702057
721,455.8884596824646
722,456.52446031570435
723,457.1564610004425
724,457.78146147727966
725,458.41246223449707
726,459.034462928772
727,459.66046357154846
728,460.28146409988403
729,460.9074647426605
730,461.5284652709961
731,462.15146589279175
732,462.77346658706665
733,463.39746713638306
734,464.01946783065796
735,464.6424684524536
736,465.2664692401886
737,465.8864698410034
738,466.507470369339
739,467.12647104263306
740,467.7444715499878
741,468.3644721508026
742,468.98047280311584
743,469.5974736213684
744,470.20647406578064
745,470.81947469711304
746,471.425475358963
747,472.0344760417938
748,472.6384766101837
749,473.2464771270752
750,473.84747767448425
751,474.4574785232544
752,475.06247901916504
753,475.67147970199585
754,476.27148032188416
755,476.87748074531555
756,477.47548151016235
757,478.080482006073
758,478.67748260498047
759,479.28148317337036
760,479.87848377227783
761,480.47948455810547
762,481.0734851360321
763,481.67648577690125
764,482.2684862613678
765,482.86948680877686
766,483.4634873867035
767,484.06248807907104
768,484.6594886779785
769,485.25848937034607
770,485.8514897823334
771,486.45349049568176
772,487.0494911670685
773,487.64149165153503
774,488.2384922504425
775,488.8334929943085
776,489.4334936141968
777,490.031494140625
778,490.63449478149414
779,491.2334952354431
780,491.83449602127075
781,492.432496547699
782,493.0374970436096
783,493.6354978084564
784,494.2414984703064
785,494.84049892425537
786,495.4474995136261
787,496.0525002479553
788,496.6625008583069
789,497.2665014266968
790,497.87650203704834
791,498.481502532959
792,499.0945031642914
793,499.7015037536621
794,500.3165044784546
795,500.92650508880615
796,501.5425057411194
797,502.1495063304901
798,502.7645070552826
799,503.3715076446533
800,503.9835081100464
801,504.5855088233948
802,505.1925094127655
803,505.79551005363464
804,506.40451073646545
805,507.00651121139526
806,507.6115119457245
807,508.21451234817505
808,508.8225131034851
809,509.42751359939575
810,510.03651428222656
811,510.64051485061646
812,511.250515460968
813,511.8545160293579
814,512.4635167121887
815,513.0675172805786
816,513.6765179634094
817,514.2795186042786
818,514.8835191726685
819,515.482519865036
820,516.0865204334259
821,516.6885209083557
822,517.2905216217041
823,517.8935222625732
824,518.5045228004456
825,519.1185233592987
826,519.7265241146088
827,520.3405246734619
828,520.9465253353119
829,521.5455257892609
830,522.1335265636444
831,522.7205271720886
832,523.3035275936127
833,523.8895282745361
834,524.4755289554596
835,525.0635294914246
836,525.6525299549103
837,526.2415306568146
838,526.8335311412811
839,527.4245319366455
840,528.0135324001312
841,528.5985329151154
842,529.1785335540771
843,529.7545342445374
844,530.3245346546173
845,530.8935353755951
846,531.4605360031128
847,532.0275363922119
848,532.6005370616913
849,533.1695375442505
850,533.7365381717682
851,534.3125388622284
852,534.877539396286
853,535.4485399723053
854,536.0235404968262
855,536.6075410842896
856,537.2015416622162
857,537.8115422725677
858,538.4255428314209
859,539.0485434532166
860,539.6705441474915
861,540.291544675827
862,540.9145455360413
863,541.5515460968018
864,542.1915466785431
865,542.8365473747253
866,543.4745481014252
867,544.1125485897064
868,544.7445492744446
869,545.3715498447418
870,546.0125505924225
871,546.6565511226654
872,547.295551776886
873,547.9365525245667
874,548.5695531368256
875,549.195553779602
876,549.8205544948578
877,550.4335551261902
878,551.0505557060242
879,551.6805562973022
880,552.3195569515228
881,552.9645576477051
882,553.6105582714081
883,554.2575588226318
884,554.9045596122742
885,555.5505602359772
886,556.2015607357025
887,556.8595614433289
888,557.5265622138977
889,558.195562839508
890,558.8695635795593
891,559.5415642261505
892,560.2015647888184
893,560.8525655269623
894,561.5015661716461
895,562.1485667228699
896,562.798567533493
897,563.4515681266785
898,564.1095688343048
899,564.7715694904327
900,565.4385702610016
901,566.1005709171295
902,566.7545714378357
903,567.4085721969604
904,568.0675728321075
905,568.7335734367371
906,569.3995740413666
907,570.0615746974945
908,570.723575592041
909,571.380576133728
910,572.0355768203735
911,572.6925773620605
912,573.3485782146454
913,574.0065786838531
914,574.6685793399811
915,575.3325800895691
916,576.0015807151794
917,576.6735813617706
918,577.3385820388794
919,577.9935827255249
920,578.6395833492279
921,579.276584148407
922,579.9025847911835
923,580.5265853404999
924,581.1395859718323
925,581.7565865516663
926,582.3865871429443
927,583.0225877761841
928,583.6745884418488
929,584.337589263916
930,585.0055899620056
931,585.674590587616
932,586.3455913066864
933,587.02459192276
934,587.7035925388336
935,588.3805932998657
936,589.054594039917
937,589.7225947380066
938,590.3955953121185
939,591.0635960102081
940,591.7355966567993
941,592.4095973968506
942,593.0835981369019
943,593.7545986175537
944,594.4195992946625
945,595.1045999526978
946,595.7896008491516
947,596.4736013412476
948,597.1496021747589
949,597.8166027069092
950,598.4826035499573
951,599.1496040821075
952,599.8256049156189
953,600.49560546875
954,601.1686062812805
955,601.8336069583893
956,602.5046074390411
957,603.1816082000732
958,603.8556089401245
959,604.5276095867157
960,605.201610326767
961,605.8806109428406
962,606.5606117248535
963,607.2386124134064
964,607.9186129570007
965,608.5936136245728
966,609.267614364624
967,609.9376149177551
968,610.6076157093048
969,611.2816164493561
970,611.9596171379089
971,612.6266176700592
972,613.291618347168
973,613.955619096756
974,614.6256196498871
975,615.2976205348969
976,615.9666211605072
977,616.6336216926575
978,617.2946224212646
979,617.9626231193542
980,618.6246237754822
981,619.2816245555878
982,619.9416251182556
983,620.6116256713867
984,621.2776265144348
985,621.938627243042
986,622.6006278991699
987,623.270628452301
988,623.9466290473938
989,624.625629901886
990,625.3076305389404
991,625.9936311244965
992,626.6876318454742
993,627.3756325244904
994,628.0546333789825
995,628.7276339530945
996,629.3896346092224
997,630.046635389328
998,630.6946358680725
999,631.3316366672516
1000,631.9566371440887
1001,632.5776379108429
1002,633.2016384601593
1003,633.84263920784
1004,634.4946398735046
1005,635.1606404781342
1006,635.820641040802
1007,636.4856417179108
1008,637.1496424674988
1009,637.8146431446075
1010,638.4846436977386
1011,639.1526443958282
1012,639.817645072937
1013,640.4846458435059
1014,641.1556465625763
1015,641.8386471271515
1016,642.5156478881836
1017,643.1836485862732
1018,643.8556492328644
1019,644.5246498584747
1020,645.2006506919861
1021,645.8776512145996
1022,646.54865193367
1023,647.2206525802612
1024,647.8936533927917
1025,648.5636539459229
1026,649.2336547374725
1027,649.9066553115845
1028,650.590656042099
1029,651.2726566791534
1030,651.9506573677063
1031,652.6246581077576
1032,653.2976586818695
1033,653.9636595249176
1034,654.6346600055695
1035,655.3046607971191
1036,655.9736614227295
1037,656.6436622142792
1038,657.3166627883911
1039,657.9916634559631
1040,658.6626641750336
1041,659.3296649456024
1042,659.9916656017303
1043,660.6496660709381
1044,661.3196668624878
1045,661.9876675605774
1046,662.6526682376862
1047,663.3086688518524
1048,663.9636695384979
1049,664.6156702041626
1050,665.2766709327698
1051,665.9356715679169
1052,666.5966720581055
1053,667.2526729106903
1054,667.9106733798981
1055,668.5816740989685
1056,669.2496747970581
1057,669.9236755371094
1058,670.5946762561798
1059,671.2676768302917
1060,671.9506776332855
1061,672.6296782493591
1062,673.3036789894104
1063,673.9676795005798
1064,674.6296801567078
1065,675.2876808643341
1066,675.949681520462
1067,676.6086821556091
1068,677.2726829051971
1069,677.9436836242676
1070,678.6106841564178
1071,679.2736849784851
1072,679.9296855926514
1073,680.5896861553192
1074,681.254686832428
1075,681.918687582016
1076,682.582688331604
1077,683.2466888427734
1078,683.9096896648407
1079,684.5826902389526
1080,685.2536909580231
1081,685.9236917495728
1082,686.5926923751831
1083,687.2596929073334
1084,687.9356937408447
1085,688.6046943664551
1086,689.2726950645447
1087,689.9356956481934
1088,690.5956964492798
1089,691.2586970329285
1090,691.9236977100372
1091,692.5856983661652
1092,693.2426989078522
1093,693.8936996459961
1094,694.5537004470825
1095,695.2097010612488
1096,695.865701675415
1097,696.5177023410797
1098,697.1787030696869
1099,697.8447036743164
1100,698.512704372406
1101,699.1787049770355
1102,699.8437056541443
1103,700.5207064151764
1104,701.1937069892883
1105,701.8627076148987
1106,702.5277082920074
1107,703.1937091350555
1108,703.8607096672058
1109,704.521710395813
1110,705.1807110309601
1111,705.8387117385864
1112,706.5027124881744
1113,707.1647131443024
1114,707.825713634491
1115,708.4827144145966
1116,709.1447150707245
1117,709.8127157688141
1118,710.4787163734436
1119,711.149717092514
1120,711.8177177906036
1121,712.4857184886932
1122,713.1587190628052
1123,713.8287198543549
1124,714.4947204589844
1125,715.1547210216522
1126,715.8237218856812
1127,716.4927225112915
1128,717.1567230224609
1129,717.8217236995697
1130,718.4787244796753
1131,719.1477251052856
1132,719.8197257518768
1133,720.4887266159058
1134,721.1547272205353
1135,721.8207278251648
1136,722.4887285232544
1137,723.1657292842865
1138,723.8367297649384
1139,724.5087306499481
1140,725.1747312545776
1141,725.8537318706512
1142,726.5337326526642
1143,727.2057332992554
1144,727.8777339458466
1145,728.5447347164154
1146,729.2217352390289
1147,729.9107360839844
1148,730.5927367210388
1149,731.26473736763
1150,731.9327380657196
1151,732.60173869133
1152,733.2717394828796
1153,733.9367401599884
1154,734.5987408161163
1155,735.2607414722443
1156,735.9287421703339
1157,736.5997426509857
1158,737.2687435150146
1159,737.9347441196442
1160,738.6077446937561
1161,739.2827453613281
1162,739.9577460289001
1163,740.6277468204498
1164,741.2987475395203
1165,741.974748134613
1166,742.6457488536835
1167,743.3097496032715
1168,743.9747502803802
1169,744.6377508640289
1170,745.3057515621185
1171,745.976752281189
1172,746.6457529067993
1173,747.3157534599304
1174,747.98375415802
1175,748.6627550125122
1176,749.3427555561066
1177,750.0177562236786
1178,750.6907570362091
1179,751.3677575588226
1180,752.0467584133148
1181,752.7257590293884
1182,753.3987596035004
1183,754.0717604160309
1184,754.7387609481812
1185,755.4327616691589
1186,756.1247625350952
1187,756.8107631206512
1188,757.4887638092041
1189,758.1607644557953
1190,758.8357651233673
1191,759.5157659053802
1192,760.1947665214539
1193,760.8727672100067
1194,761.5477678775787
1195,762.232768535614
1196,762.9147691726685
1197,763.5947699546814
1198,764.2707705497742
1199,764.9447712898254
1200,765.6157720088959
1201,766.2937726974487
1202,766.9687733650208
1203,767.6377739906311
1204,768.3047747612
1205,768.9647753238678
1206,769.636775970459
1207,770.311776638031
1208,770.9797773361206
1209,771.6427781581879
1210,772.3057787418365
1211,772.9597795009613
1212,773.6277801990509
1213,774.2837808132172
1214,774.9337813854218
1215,775.5907821655273
1216,776.2397828102112
1217,776.8807833194733
1218,777.5197839736938
1219,778.1617846488953
1220,778.7927854061127
1221,779.4267859458923
1222,780.0507864952087
1223,780.6797871589661
1224,781.3197877407074
1225,781.9697885513306
1226,782.622789144516
1227,783.2777898311615
1228,783.9397904872894
1229,784.6067912578583
1230,785.2737917900085
1231,785.9537925720215
1232,786.6297931671143
1233,787.3027939796448
1234,787.9737944602966
1235,788.6407952308655
1236,789.3087959289551
1237,789.9787964820862
1238,790.643797159195
1239,791.3057978153229
1240,791.9697985649109
1241,792.6327991485596
1242,793.3087999820709
1243,793.9848005771637
1244,794.6628012657166
1245,795.3368020057678
1246,796.0068025588989
1247,796.6738033294678
1248,797.347804069519
1249,798.0288047790527
1250,798.7098054885864
1251,799.3948061466217
1252,800.0808067321777
1253,800.7718074321747
1254,801.469808101654
1255,802.1588089466095
1256,802.8448095321655
1257,803.5308103561401
1258,804.2168109416962
1259,804.9018115997314
1260,805.585812330246
1261,806.2768130302429
1262,806.9618136882782
1263,807.6538143157959
1264,808.3478150367737
1265,809.0438158512115
1266,809.7338163852692
1267,810.4248170852661
1268,811.1158177852631
1269,811.8058185577393
1270,812.4968192577362
1271,813.1858198642731
1272,813.8668205738068
1273,814.5478212833405
1274,815.2368221282959
1275,815.9258227348328
1276,816.610823392868
1277,817.2938241958618
1278,817.9808247089386
1279,818.6608254909515
1280,819.3398261070251
1281,820.0108268260956
1282,820.6948275566101
1283,821.3818283081055
1284,822.0718288421631
1285,822.756829738617
1286,823.4348304271698
1287,824.1128308773041
1288,824.792831659317
1289,825.4788324832916
1290,826.1598329544067
1291,826.8308336734772
1292,827.4958343505859
1293,828.1498351097107
1294,828.8018357753754
1295,829.4598364830017
1296,830.1238369941711
1297,830.7838377952576
1298,831.4558384418488
1299,832.1308391094208
1300,832.8018398284912
1301,833.4678404331207
1302,834.1308410167694
1303,834.7978417873383
1304,835.4698424339294
1305,836.1398432254791
1306,836.8088438510895
1307,837.474844455719
1308,838.1378450393677
1309,838.8108458518982
1310,839.4848465919495
1311,840.1568472385406
1312,840.8298478126526
1313,841.5038485527039
1314,842.1838493347168
1315,842.8748497962952
1316,843.5648505687714
1317,844.250851392746
1318,844.9338519573212
1319,845.6068527698517
1320,846.2898533344269
1321,846.9748539924622
1322,847.652854681015
1323,848.3238554000854
1324,848.989856004715
1325,849.6548566818237
1326,850.3128573894501
1327,850.9738581180573
1328,851.6308586597443
1329,852.2918593883514
1330,852.970860004425
1331,853.6498608589172
1332,854.3308615684509
1333,855.0098621845245
1334,855.6868629455566
1335,856.3718636035919
1336,857.0608642101288
1337,857.7418649196625
1338,858.4188656806946
1339,859.0988662242889
1340,859.7718670368195
1341,860.4538676738739
1342,861.1368682384491
1343,861.8188691139221
1344,862.5028696060181
1345,863.1818704605103
1346,863.8648710250854
1347,864.5558717250824
1348,865.2388725280762
1349,865.9128730297089
1350,866.5838737487793
1351,867.2488744258881
1352,867.9128751754761
1353,868.5708758831024
1354,869.2228765487671
1355,869.8978772163391
1356,870.5828778743744
1357,871.2698786258698
1358,871.9488792419434
1359,872.6228799819946
1360,873.291880607605
1361,873.9638812541962
1362,874.6368818283081
1363,875.316882610321
1364,875.9978833198547
1365,876.6788840293884
1366,877.3608846664429
1367,878.0388853549957
1368,878.7278859615326
1369,879.4178867340088
1370,880.1058874130249
1371,880.7878880500793
1372,881.457888841629
1373,882.119889497757
1374,882.7738902568817
1375,883.4258909225464
1376,884.0668914318085
1377,884.7138922214508
1378,885.3628928661346
1379,886.0098934173584
1380,886.6608941555023
1381,887.334894657135
1382,888.016895532608
1383,888.6928961277008
1384,889.3688967227936
1385,890.0378975868225
1386,890.7088980674744
1387,891.3798987865448
1388,892.0538995265961
1389,892.7429001331329
1390,893.4389009475708
1391,894.1339015960693
1392,894.8209023475647
1393,895.5099029541016
1394,896.1939036846161
1395,896.8969044685364
1396,897.5959050655365
1397,898.2899057865143
1398,898.9789063930511
1399,899.6609072685242
1400,900.3349077701569
1401,901.0089085102081
1402,901.6929092407227
1403,902.379909992218
1404,903.0649106502533
1405,903.7449111938477
1406,904.4179120063782
1407,905.0949127674103
1408,905.7729134559631
1409,906.4479141235352
1410,907.1299147605896
1411,907.8309154510498
1412,908.5379161834717
1413,909.235916852951
1414,909.926917552948
1415,910.6149182319641
1416,911.2979187965393
1417,911.9849195480347
1418,912.67192029953
1419,913.3649210929871
1420,914.0739216804504
1421,914.7859225273132
1422,915.4969232082367
1423,916.2049238681793
1424,916.9099245071411
1425,917.6109251976013
1426,918.3059260845184
1427,919.0029265880585
1428,919.6999273300171
1429,920.3939280509949
1430,921.0799288749695
1431,921.7629294395447
1432,922.4389300346375
1433,923.111930847168
1434,923.7829315662384
1435,924.4549322128296
1436,925.1339328289032
1437,925.8179335594177
1438,926.4999341964722
1439,927.1749348640442
1440,927.8489356040955
1441,928.5259363651276
1442,929.2009370326996
1443,929.880937576294
1444,930.5549383163452
1445,931.2289390563965
1446,931.8999397754669
1447,932.5669403076172
1448,933.2369410991669
1449,933.9019417762756
1450,934.5729424953461
1451,935.2559430599213
1452,935.9359438419342
1453,936.6139445304871
1454,937.2939450740814
1455,937.9639458656311
1456,938.6349465847015
1457,939.3079471588135
1458,939.9879479408264
1459,940.6659486293793
1460,941.3409492969513
1461,942.0199499130249
1462,942.6979506015778
1463,943.387951374054
1464,944.0769519805908
1465,944.7699527740479
1466,945.4589533805847
1467,946.1409540176392
1468,946.8149547576904
1469,947.4969553947449
1470,948.184956073761
1471,948.8759567737579
1472,949.5609574317932
1473,950.2389581203461
1474,950.9109587669373
1475,951.5789594650269
1476,952.250960111618
1477,952.9359610080719
1478,953.6219615936279
1479,954.3009622097015
1480,954.982962846756
1481,955.6669635772705
1482,956.3479642868042
1483,957.0429649353027
1484,957.7439658641815
1485,958.43896651268
1486,959.1259670257568
1487,959.8069677352905
1488,960.4829685688019
1489,961.1619691848755
1490,961.8469698429108
1491,962.5279705524445
1492,963.2019712924957
1493,963.8899719715118
1494,964.5639727115631
1495,965.2409732341766
1496,965.927973985672
1497,966.6149747371674
1498,967.2989754676819
1499,967.9809761047363
1500,968.6549768447876
1501,969.334977388382
1502,970.0229780673981
1503,970.7069787979126
1504,971.3899796009064
1505,972.06898021698
1506,972.7409808635712
1507,973.4239816665649
1508,974.1139822006226
1509,974.7989828586578
1510,975.4829835891724
1511,976.1519842147827
1512,976.8139848709106
1513,977.4849855899811
1514,978.1479864120483
1515,978.8009870052338
1516,979.4429876804352
1517,980.0779883861542
1518,980.7039887905121
1519,981.3279895782471
1520,981.9759902954102
1521,982.6569907665253
1522,983.3519916534424
1523,984.0629923343658
1524,984.7709929943085
1525,985.4829936027527
1526,986.1899943351746
1527,986.916995048523
1528,987.6619958877563
1529,988.3909966945648
1530,989.1039974689484
1531,989.8129980564117
1532,990.5149986743927
1533,991.2089993953705
1534,991.9050002098083
1535,992.6140007972717
1536,993.3240015506744
1537,994.0290024280548
1538,994.730003118515
1539,995.4270038604736
1540,996.1150045394897
1541,996.8030052185059
1542,997.491005897522
1543,998.1730065345764
1544,998.8540072441101
1545,999.532007932663
1546,1000.2300086021423
1547,1000.9320092201233
1548,1001.6360099315643
1549,1002.3340106010437
1550,1003.0360114574432
1551,1003.7360122203827
1552,1004.4410128593445
1553,1005.1420135498047
1554,1005.8440141677856
1555,1006.5390150547028
1556,1007.2360155582428
1557,1007.9380164146423
1558,1008.635017156601
1559,1009.3330178260803
1560,1010.0220184326172
1561,1010.7080192565918
1562,1011.4040198326111
1563,1012.095020532608
1564,1012.7840211391449
1565,1013.4740219116211
1566,1014.1660225391388
1567,1014.8510234355927
1568,1015.5420241355896
1569,1016.251024723053
1570,1016.9670255184174
1571,1017.6690261363983
1572,1018.3620269298553
1573,1019.0510275363922
1574,1019.7370283603668
1575,1020.4220290184021
1576,1021.111029624939
1577,1021.7970304489136
1578,1022.4830310344696
1579,1023.1660318374634
1580,1023.856032371521
1581,1024.560033082962
1582,1025.2650337219238
1583,1025.9720344543457
1584,1026.680035352707
1585,1027.384036064148
1586,1028.0920367240906
1587,1028.8090374469757
1588,1029.5270380973816
1589,1030.2370388507843
1590,1030.9400396347046
1591,1031.6370403766632
1592,1032.3230409622192
1593,1033.012041568756
1594,1033.708042383194
1595,1034.3970429897308
1596,1035.0840437412262
1597,1035.7690443992615
1598,1036.4540450572968
1599,1037.1410458087921
1600,1037.8420464992523
1601,1038.5380473136902
1602,1039.2330479621887
1603,1039.9300487041473
1604,1040.6250493526459
1605,1041.324049949646
1606,1042.0290508270264
1607,1042.7310514450073
1608,1043.4300520420074
1609,1044.1290528774261
1610,1044.8290536403656
1611,1045.5280542373657
1612,1046.2270550727844
1613,1046.9300556182861
1614,1047.6270563602448
1615,1048.3230571746826
1616,1049.0230576992035
1617,1049.7160584926605
1618,1050.4030592441559
1619,1051.0870599746704
1620,1051.7620606422424
1621,1052.4350612163544
1622,1053.0970618724823
1623,1053.7660624980927
1624,1054.437063217163
1625,1055.1090638637543
1626,1055.7690646648407
1627,1056.4340653419495
1628,1057.095065832138
1629,1057.7650666236877
1630,1058.4350671768188
1631,1059.1080679893494
1632,1059.7860686779022
1633,1060.4650692939758
1634,1061.1450700759888
1635,1061.8260707855225
1636,1062.5130712985992
1637,1063.2040719985962
1638,1063.8970727920532
1639,1064.5940735340118
1640,1065.3020741939545
1641,1066.0210750102997
1642,1066.7490756511688
1643,1067.4710764884949
1644,1068.1900770664215
1645,1068.9120779037476
1646,1069.6350786685944
1647,1070.3570792675018
1648,1071.0750799179077
1649,1071.7930808067322
1650,1072.5150814056396
1651,1073.2370822429657
1652,1073.9570829868317
1653,1074.6750836372375
1654,1075.3960843086243
1655,1076.1130850315094
1656,1076.8340859413147
1657,1077.5530865192413
1658,1078.2620873451233
1659,1078.972088098526
1660,1079.6730887889862
1661,1080.3740894794464
1662,1081.0720901489258
1663,1081.7650907039642
1664,1082.466091632843
1665,1083.1710922718048
1666,1083.8710930347443
1667,1084.5660936832428
1668,1085.262094259262
1669,1085.9520950317383
1670,1086.6410956382751
1671,1087.350096464157
1672,1088.0530972480774
1673,1088.7540979385376
1674,1089.4500985145569
1675,1090.1420991420746
1676,1090.8390998840332
1677,1091.533100605011
1678,1092.2231013774872
1679,1092.9341020584106
1680,1093.6331028938293
1681,1094.325103521347
1682,1095.0131042003632
1683,1095.6991047859192
1684,1096.3831055164337
1685,1097.0631062984467
1686,1097.7751069068909
1687,1098.4831075668335
1688,1099.1931083202362
1689,1099.9011089801788
1690,1100.6031098365784
1691,1101.2971105575562
1692,1101.9981112480164
1693,1102.6971118450165
1694,1103.3931126594543
1695,1104.0841133594513
1696,1104.7711141109467
1697,1105.4591147899628
1698,1106.144115447998
1699,1106.835116147995
1700,1107.5351169109344
1701,1108.228117465973
1702,1108.92111825943
1703,1109.6161189079285
1704,1110.3181195259094
1705,1111.015120267868
1706,1111.7141211032867
1707,1112.4141216278076
1708,1113.1181223392487
1709,1113.823123216629
1710,1114.5261237621307
1711,1115.2211246490479
1712,1115.9061253070831
1713,1116.584125995636
1714,1117.254126548767
1715,1117.9081273078918
1716,1118.562127828598
1717,1119.2011284828186
1718,1119.8391292095184
1719,1120.4721298217773
1720,1121.1011304855347
1721,1121.7391312122345
1722,1122.3811316490173
1723,1123.020132303238
1724,1123.6591329574585
1725,1124.2961337566376
1726,1124.933134317398
1727,1125.568135023117
1728,1126.1981356143951
1729,1126.81813621521
1730,1127.435136795044
1731,1128.0441374778748
1732,1128.6461381912231
1733,1129.2421386241913
1734,1129.8321392536163
1735,1130.4181399345398
1736,1131.0011403560638
1737,1131.5811409950256
1738,1132.1601417064667
1739,1132.7461421489716
1740,1133.3351428508759
1741,1133.9281435012817
1742,1134.5291440486908
1743,1135.127144575119
1744,1135.722145318985
1745,1136.3321459293365
1746,1136.938146352768
1747,1137.5431470870972
1748,1138.1431477069855
1749,1138.7411482334137
1750,1139.3371489048004
1751,1139.9331495761871
1752,1140.5261499881744
1753,1141.123150587082
1754,1141.7091512680054
1755,1142.2951519489288
1756,1142.8891525268555
1757,1143.497153043747
1758,1144.1081535816193
1759,1144.7411544322968
1760,1145.3761548995972
1761,1146.0161554813385
1762,1146.6561563014984
1763,1147.295156955719
1764,1147.9351575374603
1765,1148.582158088684
1766,1149.2291588783264
1767,1149.879159450531
1768,1150.527160167694
1769,1151.1771607398987
1770,1151.8231613636017
1771,1152.4741621017456
1772,1153.1221628189087
1773,1153.7691633701324
1774,1154.413164138794
1775,1155.0531647205353
1776,1155.6951653957367
1777,1156.3361659049988
1778,1156.9901666641235
1779,1157.6501672267914
1780,1158.3101680278778
1781,1158.9651687145233
1782,1159.626169204712
1783,1160.2951700687408
1784,1160.9631707668304
1785,1161.6251714229584
1786,1162.286171913147
1787,1162.939172744751
1788,1163.5941734313965
1789,1164.2501740455627
1790,1164.9091746807098
1791,1165.5661752223969
1792,1166.2241759300232
1793,1166.8831765651703
1794,1167.5401773452759
1795,1168.2001779079437
1796,1168.8711786270142
1797,1169.5441794395447
1798,1170.2181799411774
1799,1170.888180732727
1800,1171.5601813793182
1801,1172.2351820468903
1802,1172.9141826629639
1803,1173.5881834030151
1804,1174.255184173584
1805,1174.9181847572327
1806,1175.5881853103638
1807,1176.2681860923767
1808,1176.9441866874695
1809,1177.61518740654
1810,1178.2861881256104
1811,1178.9551887512207
1812,1179.6251895427704
1813,1180.2991902828217
1814,1180.9721908569336
1815,1181.6421914100647
1816,1182.3111922740936
1817,1182.9871928691864
1818,1183.6671936511993
1819,1184.3501942157745
1820,1185.0401949882507
1821,1185.723195552826
1822,1186.4091963768005
1823,1187.093197107315
1824,1187.7721977233887
1825,1188.4541983604431
1826,1189.1261990070343
1827,1189.796199798584
1828,1190.469200372696
1829,1191.1452012062073
1830,1191.8202018737793
1831,1192.4952025413513
1832,1193.1652030944824
1833,1193.838203907013
1834,1194.5102045536041
1835,1195.183205127716
1836,1195.8532059192657
1837,1196.5162065029144
1838,1197.1752071380615
1839,1197.8372077941895
1840,1198.5032086372375
1841,1199.1652092933655
1842,1199.8282098770142
1843,1200.479210615158
1844,1201.1272110939026
1845,1201.782211780548
1846,1202.4432125091553
1847,1203.1122131347656
1848,1203.7822139263153
1849,1204.458214521408
1850,1205.136215209961
1851,1205.8152158260345
1852,1206.4952166080475
1853,1207.1692173480988
1854,1207.84121799469
1855,1208.511218547821
1856,1209.1822192668915
1857,1209.848219871521
1858,1210.5132205486298
1859,1211.1772212982178
1860,1211.8442220687866
1861,1212.5092227458954
1862,1213.1692233085632
1863,1213.8252239227295
1864,1214.4842245578766
1865,1215.1562252044678
1866,1215.8312261104584
1867,1216.508226633072
1868,1217.1822273731232
1869,1217.8532280921936
1870,1218.522228717804
1871,1219.1962294578552
1872,1219.8732299804688
1873,1220.5542306900024
1874,1221.2292313575745
1875,1221.9042320251465
1876,1222.5732328891754
1877,1223.2462334632874
1878,1223.9242341518402
1879,1224.607234954834
1880,1225.29323554039
1881,1225.9812362194061
1882,1226.6742370128632
1883,1227.36523771286
1884,1228.0552382469177
1885,1228.7432389259338
1886,1229.4302396774292
1887,1230.113240480423
1888,1230.786241054535
1889,1231.4552416801453
1890,1232.122242450714
1891,1232.795243024826
1892,1233.4652438163757
1893,1234.1312444210052
1894,1234.796245098114
1895,1235.4592456817627
1896,1236.1202464103699
1897,1236.779247045517
1898,1237.4462478160858
1899,1238.1112484931946
1900,1238.7742490768433
1901,1239.4332497119904
1902,1240.0922503471375
1903,1240.7582511901855
1904,1241.4232518672943
1905,1242.0922524929047
1906,1242.7602531909943
1907,1243.425253868103
1908,1244.0902545452118
1909,1244.751255273819
1910,1245.410255908966
1911,1246.0652565956116
1912,1246.7382571697235
1913,1247.4102578163147
1914,1248.0862584114075
1915,1248.7552592754364
1916,1249.423259973526
1917,1250.0902605056763
1918,1250.7622611522675
1919,1251.4402618408203
1920,1252.1172626018524
1921,1252.796263217926
1922,1253.471263885498
1923,1254.149264574051
1924,1254.821265220642
1925,1255.496265888214
1926,1256.1662666797638
1927,1256.8332674503326
1928,1257.497267961502
1929,1258.15926861763
1930,1258.8282692432404
1931,1259.4882700443268
1932,1260.1512706279755
1933,1260.8142714500427
1934,1261.4722719192505
1935,1262.1192727088928
1936,1262.7722733020782
1937,1263.4322741031647
1938,1264.1002745628357
1939,1264.7722754478455
1940,1265.4432759284973
1941,1266.1072766780853
1942,1266.7582774162292
1943,1267.407278060913
1944,1268.042278766632
1945,1268.66827917099
1946,1269.292279958725
1947,1269.9262804985046
1948,1270.566281080246
1949,1271.2132818698883
1950,1271.865282535553
1951,1272.5182831287384
1952,1273.181283712387
1953,1273.8462843894958
1954,1274.5152852535248
1955,1275.187285900116
1956,1275.8612866401672
1957,1276.5342872142792
1958,1277.1972877979279
1959,1277.8642885684967
1960,1278.5372891426086
1961,1279.1992897987366
1962,1279.8522906303406
1963,1280.4902911186218
1964,1281.1262917518616
1965,1281.7502925395966
1966,1282.3672931194305
1967,1282.9762938022614
1968,1283.5772943496704
1969,1284.1742949485779
1970,1284.764295578003
1971,1285.3562960624695
1972,1285.9632966518402
1973,1286.5802972316742
1974,1287.202297925949
1975,1287.8382985591888
1976,1288.4602992534637
1977,1289.0952999591827
1978,1289.7503006458282
1979,1290.4173011779785
1980,1291.0913019180298
1981,1291.768302679062
1982,1292.443303346634
1983,1293.1113040447235
1984,1293.7733047008514
1985,1294.4273052215576
1986,1295.0863058567047
1987,1295.7463066577911
1988,1296.4003071784973
1989,1297.0533080101013
1990,1297.7073085308075
1991,1298.3653092384338
1992,1299.026309967041
1993,1299.685310602188
1994,1300.3393111228943
1995,1300.993311882019
1996,1301.6473126411438
1997,1302.306313276291
1998,1302.9643137454987
1999,1303.6343145370483
2000,1304.3033151626587
2001,1304.9673159122467
2002,1305.639316558838
2003,1306.3173172473907
2004,1306.991317987442
2005,1307.6603186130524
2006,1308.3263192176819
2007,1308.99232006073
2008,1309.6523206233978
2009,1310.311321258545
2010,1310.9693219661713
2011,1311.6273226737976
2012,1312.2833232879639
2013,1312.9353239536285
2014,1313.5893244743347
2015,1314.2373251914978
2016,1314.8843259811401
2017,1315.542326450348
2018,1316.206327199936
2019,1316.8638279438019
2020,1317.5213284492493
2021,1318.175329208374
2022,1318.8183298110962
2023,1319.4593305587769
2024,1320.0993311405182
2025,1320.7453317642212
2026,1321.3903324604034
2027,1322.0353331565857
2028,1322.6833336353302
2029,1323.3283343315125
2030,1323.9783351421356
2031,1324.6303358078003
2032,1325.2863364219666
2033,1325.9423370361328
2034,1326.60333776474
2035,1327.2673382759094
2036,1327.935338973999
2037,1328.5953397750854
2038,1329.2423403263092
2039,1329.8813409805298
2040,1330.5143415927887
2041,1331.141342163086
2042,1331.765342950821
2043,1332.3923435211182
2044,1333.017344236374
2045,1333.6393446922302
2046,1334.2623453140259
2047,1334.8883459568024
2048,1335.5143465995789
2049,1336.135347366333
2050,1336.754348039627
2051,1337.3783485889435
2052,1338.0053491592407
2053,1338.6313498020172
2054,1339.256350517273
2055,1339.8773510456085
2056,1340.4973516464233
2057,1341.12535238266
2058,1341.7593529224396
2059,1342.3953535556793
2060,1343.0323543548584
2061,1343.6683549880981
2062,1344.3023555278778
2063,1344.9333562850952
2064,1345.5583567619324
2065,1346.1853573322296
2066,1346.8103580474854
2067,1347.433358669281
2068,1348.0563592910767
2069,1348.6773600578308
2070,1349.2963604927063
2071,1349.9173612594604
2072,1350.5413618087769
2073,1351.1613624095917
2074,1351.777363061905
2075,1352.3923637866974
2076,1353.0073642730713
2077,1353.6203649044037
2078,1354.2293655872345
2079,1354.8343660831451
2080,1355.4413666725159
2081,1356.0473673343658
2082,1356.6543679237366
2083,1357.2603685855865
2084,1357.862369298935
2085,1358.463369846344
2086,1359.0683703422546
2087,1359.6693711280823
2088,1360.2693717479706
2089,1360.8683722019196
2090,1361.4723727703094
2091,1362.0703735351562
2092,1362.6673741340637
2093,1363.262374639511
2094,1363.8563752174377
2095,1364.443375825882
2096,1365.0323765277863
2097,1365.6183769702911
2098,1366.2043776512146
2099,1366.7913782596588
2100,1367.3803787231445
2101,1367.9693794250488
2102,1368.556380033493
2103,1369.1383805274963
2104,1369.723381280899
2105,1370.3033816814423
2106,1370.8843822479248
2107,1371.4673829078674
2108,1372.0473835468292
2109,1372.6283841133118
2110,1373.2113847732544
2111,1373.7933852672577
2112,1374.375385761261
2113,1374.9533865451813
2114,1375.529386997223
2115,1376.1003875732422
2116,1376.675388097763
2117,1377.2493886947632
2118,1377.8263893127441
2119,1378.4053900241852
2120,1378.9893906116486
2121,1379.5713911056519
2122,1380.1553916931152
2123,1380.7413923740387
2124,1381.3263928890228
2125,1381.9123935699463
2126,1382.4983940124512
2127,1383.0843946933746
2128,1383.6723952293396
2129,1384.256395816803
2130,1384.8453965187073
2131,1385.4353969097137
2132,1386.0273976325989
2133,1386.6183981895447
2134,1387.2133989334106
2135,1387.8123993873596
2136,1388.412400007248
2137,1389.0114006996155
2138,1389.6154012680054
2139,1390.2184019088745
2140,1390.8274023532867
2141,1391.4314031600952
2142,1392.038403749466
2143,1392.6454043388367
2144,1393.2544050216675
2145,1393.8604054450989
2146,1394.4614062309265
2147,1395.0554068088531
2148,1395.646407365799
2149,1396.234407901764
2150,1396.8224084377289
2151,1397.4064090251923
2152,1397.9924097061157
2153,1398.5814101696014
2154,1399.169410943985
2155,1399.7584114074707
2156,1400.3484120368958
2157,1400.9414126873016
2158,1401.5324132442474
2159,1402.1244139671326
2160,1402.71941447258
2161,1403.3144149780273
2162,1403.9124157428741
2163,1404.5074162483215
2164,1405.1034169197083
2165,1405.7004175186157
2166,1406.2964179515839
2167,1406.8954186439514
2168,1407.4964191913605
2169,1408.095419883728
2170,1408.7074205875397
2171,1409.318421125412
2172,1409.9284217357635
2173,1410.5314223766327
2174,1411.1354229450226
2175,1411.737423658371
2176,1412.3424241542816
2177,1412.9454247951508
2178,1413.5514254570007
2179,1414.1534259319305
2180,1414.7564265727997
2181,1415.358427286148
2182,1415.9594278335571
2183,1416.5594284534454
2184,1417.1604290008545
2185,1417.7624297142029
2186,1418.3654301166534
2187,1418.966430902481
2188,1419.5694315433502
2189,1420.1674320697784
2190,1420.7654325962067
2191,1421.3604333400726
2192,1421.9524338245392
2193,1422.5444345474243
2194,1423.13343501091
2195,1423.723435640335
2196,1424.3124363422394
2197,1424.899436712265
2198,1425.4874374866486
2199,1426.0754380226135
2200,1426.6624386310577
2201,1427.2504391670227
2202,1427.8414397239685
2203,1428.4304404258728
2204,1429.0224409103394
2205,1429.6134414672852
2206,1430.2034420967102
2207,1430.7904427051544
2208,1431.3824434280396
2209,1431.9704439640045
2210,1432.5594444274902
2211,1433.1484451293945
2212,1433.7384457588196
2213,1434.3304462432861
2214,1434.923446893692
2215,1435.518447637558
2216,1436.1154482364655
2217,1436.7114486694336
2218,1437.308449268341
2219,1437.9024498462677
2220,1438.491450548172
2221,1439.0834510326385
2222,1439.6764516830444
2223,1440.2694523334503
2224,1440.8664529323578
2225,1441.464453458786
2226,1442.0634541511536
2227,1442.658454656601
2228,1443.2604553699493
2229,1443.8614559173584
2230,1444.4634566307068
2231,1445.0644571781158
2232,1445.6684577465057
2233,1446.2704584598541
2234,1446.872458934784
2235,1447.4694595336914
2236,1448.0674602985382
2237,1448.6634607315063
2238,1449.259461402893
2239,1449.8554620742798
2240,1450.451462507248
2241,1451.0454630851746
2242,1451.642463684082
2243,1452.2404644489288
2244,1452.8374650478363
2245,1453.4324655532837
2246,1454.0244662761688
2247,1454.6174666881561
2248,1455.2114675045013
2249,1455.8044679164886
2250,1456.3974685668945
2251,1456.9894692897797
2252,1457.5814697742462
2253,1458.1784703731537
2254,1458.7774710655212
2255,1459.3754715919495
2256,1459.9734721183777
2257,1460.573472738266
2258,1461.1724734306335
2259,1461.7714738845825
2260,1462.3654747009277
2261,1462.9614751338959
2262,1463.5604758262634
2263,1464.1604764461517
2264,1464.7624769210815
2265,1465.3654775619507
2266,1465.97047829628
2267,1466.573478937149
2268,1467.1754794120789
2269,1467.7754800319672
2270,1468.3784806728363
2271,1468.9824812412262
2272,1469.5854818820953
2273,1470.190482378006
2274,1470.7954831123352
2275,1471.4014837741852
2276,1472.0064842700958
2277,1472.6124849319458
2278,1473.2194855213165
2279,1473.8234860897064
2280,1474.4294867515564
2281,1475.0334873199463
2282,1475.6384880542755
2283,1476.246488571167
2284,1476.852489233017
2285,1477.4614899158478
2286,1478.0654904842377
2287,1478.6684911251068
2288,1479.2684917449951
2289,1479.8734922409058
2290,1480.4754929542542
2291,1481.0784933567047
2292,1481.678493976593
2293,1482.2794947624207
2294,1482.8824954032898
2295,1483.4844958782196
2296,1484.0854964256287
2297,1484.685497045517
2298,1485.2854976654053
2299,1485.8864982128143
2300,1486.4884989261627
2301,1487.0874996185303
2302,1487.68950009346
2303,1488.2895007133484
2304,1488.8875012397766
2305,1489.4855020046234
2306,1490.0835025310516
2307,1490.6825032234192
2308,1491.2825038433075
2309,1491.8815042972565
2310,1492.4795050621033
2311,1493.0805056095123
2312,1493.6785061359406
2313,1494.2745068073273
2314,1494.8675074577332
2315,1495.4595079421997
2316,1496.0515086650848
2317,1496.6425092220306
2318,1497.224509716034
2319,1497.8065104484558
2320,1498.386510848999
2321,1498.968511581421
2322,1499.551512002945
2323,1500.1345126628876
2324,1500.7160131931305
2325,1501.297513961792
2326,1501.8825144767761
2327,1502.4565150737762
2328,1503.0315155982971
2329,1503.6075162887573
2330,1504.1845166683197
2331,1504.76251745224
2332,1505.3395178318024
2333,1505.9185185432434
2334,1506.4975190162659
2335,1507.0785195827484
2336,1507.6595203876495
2337,1508.243520975113
2338,1508.8235213756561
2339,1509.4065220355988
2340,1509.9905226230621
2341,1510.5745232105255
2342,1511.160523891449
2343,1511.7465243339539
2344,1512.3345251083374
2345,1512.926525592804
2346,1513.5215260982513
2347,1514.1145267486572
2348,1514.705527305603
2349,1515.2975280284882
2350,1515.890528678894
2351,1516.4795291423798
2352,1517.0705296993256
2353,1517.656530380249
2354,1518.244530916214
2355,1518.8335316181183
2356,1519.4255321025848
2357,1520.0145328044891
2358,1520.6065332889557
2359,1521.1985340118408
2360,1521.7885346412659
2361,1522.3775351047516
2362,1522.9655356407166
2363,1523.5535364151
2364,1524.1405367851257
2365,1524.7265374660492
2366,1525.3145380020142
2367,1525.90553855896
2368,1526.495539188385
2369,1527.0835399627686
2370,1527.6745405197144
2371,1528.2695410251617
2372,1528.8635416030884
2373,1529.459542274475
2374,1530.0575428009033
2375,1530.6575434207916
2376,1531.2555441856384
2377,1531.8555445671082
2378,1532.4515452384949
2379,1533.0515458583832
2380,1533.6505465507507
2381,1534.250547170639
2382,1534.8505477905273
2383,1535.4505484104156
2384,1536.0555489063263
2385,1536.660549402237
2386,1537.2605500221252
2387,1537.858550786972
2388,1538.459551334381
2389,1539.0585520267487
2390,1539.6565525531769
2391,1540.2525532245636
2392,1540.8485536575317
2393,1541.4465544223785
2394,1542.0405550003052
2395,1542.6365554332733
2396,1543.2315561771393
2397,1543.8285567760468
2398,1544.4275574684143
2399,1545.027557849884
2400,1545.6275584697723
2401,1546.22655916214
2402,1546.8385598659515
2403,1547.444560289383
2404,1548.0515611171722
2405,1548.6545615196228
2406,1549.2585623264313
2407,1549.8645627498627
2408,1550.466563463211
2409,1551.0675640106201
2410,1551.67356467247
2411,1552.2845652103424
2412,1552.8925659656525
2413,1553.502566576004
2414,1554.1115670204163
2415,1554.7195677757263
2416,1555.3225684165955
2417,1555.927568912506
2418,1556.5255694389343
2419,1557.1235702037811
2420,1557.7215707302094
2421,1558.3215713500977
2422,1558.9195718765259
2423,1559.5155725479126
2424,1560.11257314682
2425,1560.7095737457275
2426,1561.3055744171143
2427,1561.9005749225616
2428,1562.4995756149292
2429,1563.0985760688782
2430,1563.696576833725
2431,1564.2945773601532
2432,1564.8935780525208
2433,1565.4925785064697
2434,1566.0885791778564
2435,1566.6865797042847
2436,1567.2855803966522
2437,1567.8845810890198
2438,1568.484581708908
2439,1569.0825822353363
2440,1569.678582906723
2441,1570.2745833396912
2442,1570.8665840625763
2443,1571.457584619522
2444,1572.0475852489471
2445,1572.6375858783722
2446,1573.2295863628387
2447,1573.8195869922638
2448,1574.4095876216888
2449,1575.0015881061554
2450,1575.5935888290405
2451,1576.1835894584656
2452,1576.7725899219513
2453,1577.363590478897
2454,1577.9535911083221
2455,1578.5425918102264
2456,1579.1315922737122
2457,1579.7185928821564
2458,1580.3075935840607
2459,1580.9035940170288
2460,1581.495594739914
2461,1582.0865952968597
2462,1582.6775958538055
2463,1583.265596628189
2464,1583.8575971126556
2465,1584.4475977420807
2466,1585.034598350525
2467,1585.6215989589691
2468,1586.2055995464325
2469,1586.7926001548767
2470,1587.3786005973816
2471,1587.9636013507843
2472,1588.5496017932892
2473,1589.1396024227142
2474,1589.7276029586792
2475,1590.3166036605835
2476,1590.9066042900085
2477,1591.4976048469543
2478,1592.091605424881
2479,1592.6876060962677
2480,1593.280606508255
2481,1593.8746073246002
2482,1594.4736077785492
2483,1595.0786085128784
2484,1595.6806089878082
2485,1596.2856097221375
2486,1596.8876101970673
2487,1597.4896109104156
2488,1598.0966114997864
2489,1598.703612089157
2490,1599.309612751007
2491,1599.9096133708954
2492,1600.514613866806
2493,1601.120614528656
2494,1601.7256150245667
2495,1602.3296158313751
2496,1602.931616306305
2497,1603.537616968155
2498,1604.140617609024
2499,1604.7406182289124
2500,1605.3366186618805
2501,1605.933619260788
2502,1606.536619901657
2503,1607.142620563507
2504,1607.746621131897
2505,1608.349621772766
2506,1608.9546225070953
2507,1609.5556230545044
2508,1610.1566236019135
2509,1610.7576241493225
2510,1611.3556249141693
2511,1611.9546253681183
2512,1612.5496261119843
2513,1613.1426267623901
2514,1613.7366273403168
2515,1614.332627773285
2516,1614.9276285171509
2517,1615.5226290225983
2518,1616.116629600525
2519,1616.7096302509308
2520,1617.3046307563782
2521,1617.900631427765
2522,1618.4936320781708
2523,1619.0886325836182
2524,1619.6826331615448
2525,1620.2816338539124
2526,1620.8796343803406
2527,1621.4796350002289
2528,1622.0786356925964
2529,1622.675636291504
2530,1623.2746367454529
2531,1623.8746373653412
2532,1624.472638130188
2533,1625.0676386356354
2534,1625.6676392555237
2535,1626.2706398963928
2536,1626.8726403713226
2537,1627.474641084671
2538,1628.078641653061
2539,1628.684642314911
2540,1629.2956428527832
2541,1629.9036436080933
2542,1630.5136442184448
2543,1631.127644777298
2544,1631.746645450592
2545,1632.3646459579468
2546,1632.98264670372
2547,1633.5986473560333
2548,1634.2146480083466
2549,1634.8326485157013
2550,1635.4326491355896
2551,1636.0316498279572
2552,1636.6216502189636
2553,1637.2136509418488
2554,1637.8046514987946
2555,1638.3966522216797
2556,1638.9836525917053
2557,1639.5696532726288
2558,1640.1576538085938
2559,1640.7546544075012
2560,1641.3436551094055
2561,1641.9326555728912
2562,1642.517656326294
2563,1643.0956568717957
2564,1643.6696574687958
2565,1644.243658065796
2566,1644.8136584758759
2567,1645.3906590938568
2568,1645.9736597537994
2569,1646.559660434723
2570,1647.1486608982086
2571,1647.737661600113
2572,1648.3346621990204
2573,1648.9336626529694
2574,1649.5336632728577
2575,1650.1296639442444
2576,1650.725664615631
2577,1651.3186650276184
2578,1651.9096658229828
2579,1652.4996662139893
2580,1653.0896668434143
2581,1653.6776676177979
2582,1654.2656681537628
2583,1654.8546686172485
2584,1655.4436693191528
2585,1656.0356698036194
2586,1656.6276705265045
2587,1657.219671010971
2588,1657.8106718063354
2589,1658.4016723632812
2590,1658.9936728477478
2591,1659.585673570633
2592,1660.1786739826202
2593,1660.7736747264862
2594,1661.3656752109528
2595,1661.9586758613586
2596,1662.547676563263
2597,1663.1386771202087
2598,1663.725677728653
2599,1664.313678264618
2600,1664.8996789455414
2601,1665.4846794605255
2602,1666.0706799030304
2603,1666.6566805839539
2604,1667.2426812648773
2605,1667.8296818733215
2606,1668.4126822948456
2607,1668.9996829032898
2608,1669.5876836776733
2609,1670.1726841926575
2610,1670.7526848316193
2611,1671.3386852741241
2612,1671.9306859970093
2613,1672.521686553955
2614,1673.1106870174408
2615,1673.697687625885
2616,1674.2836883068085
2617,1674.8686888217926
2618,1675.452689409256
2619,1676.0366899967194
2620,1676.6226906776428
2621,1677.2126913070679
2622,1677.8056919574738
2623,1678.3976924419403
2624,1678.9876930713654
2625,1679.5716936588287
2626,1680.1636941432953
2627,1680.777694940567
2628,1681.4026954174042
2629,1682.0286960601807
2630,1682.6486966609955
2631,1683.2606973648071
2632,1683.8716979026794
2633,1684.4776985645294
2634,1685.0786991119385
2635,1685.672699689865
2636,1686.2627003192902
2637,1686.8547010421753
2638,1687.4577016830444
2639,1688.0637021064758
2640,1688.671702861786
2641,1689.2867033481598
2642,1689.9057040214539
2643,1690.5277047157288
2644,1691.152705192566
2645,1691.7777059078217
2646,1692.4057066440582
2647,1693.0287072658539
2648,1693.642707824707
2649,1694.2577085494995
2650,1694.8797090053558
2651,1695.50070977211
2652,1696.117710351944
2653,1696.7327108383179
2654,1697.3447115421295
2655,1697.952712059021
2656,1698.560712814331
2657,1699.175713300705
2658,1699.7867140769958
2659,1700.395714521408
2660,1701.0027153491974
2661,1701.6167159080505
2662,1702.2327165603638
2663,1702.8537170886993
2664,1703.478717803955
2665,1704.1087183952332
2666,1704.7427189350128
2667,1705.3847196102142
2668,1706.025720357895
2669,1706.6637208461761
2670,1707.3027215003967
2671,1707.9437222480774
2672,1708.580722808838
2673,1709.217723608017
2674,1709.8567242622375
2675,1710.4947247505188
2676,1711.1337254047394
2677,1711.7707262039185
2678,1712.407726764679
2679,1713.0467274188995
2680,1713.6857280731201
2681,1714.3247287273407
2682,1714.9667294025421
2683,1715.6097300052643
2684,1716.2577307224274
2685,1716.9067313671112
2686,1717.5507318973541
2687,1718.1967325210571
2688,1718.8397331237793
2689,1719.4787337779999
2690,1720.115734577179
2691,1720.7487351894379
2692,1721.3827357292175
2693,1722.0227365493774
2694,1722.659737110138
2695,1723.2967376708984
2696,1723.9317383766174
2697,1724.568738937378
2698,1725.2047395706177
2699,1725.8407402038574
2700,1726.4747409820557
2701,1727.1087415218353
2702,1727.7427423000336
2703,1728.3727428913116
2704,1728.9927434921265
2705,1729.6117441654205
2706,1730.2287447452545
2707,1730.8447453975677
2708,1731.4597458839417
2709,1732.0757465362549
2710,1732.6907472610474
2711,1733.3077478408813
2712,1733.925748348236
2713,1734.5437490940094
2714,1735.164749622345
2715,1735.783750295639
2716,1736.402750968933
2717,1737.0277516841888
2718,1737.6507523059845
2719,1738.2737529277802
2720,1738.893753528595
2721,1739.5147540569305
2722,1740.1467547416687
2723,1740.7797553539276
2724,1741.408756017685
2725,1742.0347566604614
2726,1742.6597571372986
2727,1743.285757780075
2728,1743.912758588791
2729,1744.5367591381073
2730,1745.1637597084045
2731,1745.7907605171204
2732,1746.4177610874176
2733,1747.0457615852356
2734,1747.6797623634338
2735,1748.3137629032135
2736,1748.9477636814117
2737,1749.5797641277313
2738,1750.2107648849487
2739,1750.8467655181885
2740,1751.4847662448883
2741,1752.1217668056488
2742,1752.7597675323486
2743,1753.3967680931091
2744,1754.029768705368
2745,1754.664769411087
2746,1755.3017699718475
2747,1755.938770532608
2748,1756.5777711868286
2749,1757.2157719135284
2750,1757.8557724952698
2751,1758.4957733154297
2752,1759.1387739181519
2753,1759.783774614334
2754,1760.4237751960754
2755,1761.0587759017944
2756,1761.7007763385773
2757,1762.3397769927979
2758,1762.9777777194977
2759,1763.6157784461975
2760,1764.250778913498
2761,1764.885779619217
2762,1765.5197803974152
2763,1766.1567809581757
2764,1766.7947816848755
2765,1767.4307823181152
2766,1768.0707828998566
2767,1768.7097835540771
2768,1769.35378408432
2769,1769.9947848320007
2770,1770.639785528183
2771,1771.280786037445
2772,1771.9237866401672
2773,1772.564787387848
2774,1773.2037880420685
2775,1773.8397886753082
2776,1774.475789308548
2777,1775.110790014267
2778,1775.745790719986
2779,1776.3797912597656
2780,1777.0137917995453
2781,1777.6467924118042
2782,1778.2797932624817
2783,1778.9157938957214
2784,1779.554794549942
2785,1780.1947951316833
2786,1780.8347957134247
2787,1781.474796295166
2788,1782.1127970218658
2789,1782.7537977695465
2790,1783.3977982997894
2791,1784.0337989330292
2792,1784.666799545288
2793,1785.2978003025055
2794,1785.9338009357452
2795,1786.5708014965057
2796,1787.2098021507263
2797,1787.845802783966
2798,1788.480803489685
2799,1789.1128041744232
2800,1789.748804807663
2801,1790.3838052749634
2802,1791.0198059082031
2803,1791.6538066864014
2804,1792.2868072986603
2805,1792.9168078899384
2806,1793.5508086681366
2807,1794.1818091869354
2808,1794.8128099441528
2809,1795.4448103904724
2810,1796.0778110027313
2811,1796.7108118534088
2812,1797.3428122997284
2813,1797.9748129844666
2814,1798.6018135547638
2815,1799.2368142604828
2816,1799.868814945221
2817,1800.500815629959
2818,1801.1298162937164
2819,1801.7578167915344
2820,1802.3898174762726
2821,1803.029818058014
2822,1803.6718187332153
2823,1804.32381939888
2824,1804.9798200130463
2825,1805.631820678711
2826,1806.2768213748932
2827,1806.9168219566345
2828,1807.5508227348328
2829,1808.182823419571
2830,1808.8158240318298
2831,1809.4518246650696
2832,1810.0848252773285
2833,1810.7198259830475
2834,1811.3558266162872
2835,1811.989827156067
2836,1812.6288278102875
2837,1813.2748284339905
2838,1813.918829202652
2839,1814.5618298053741
2840,1815.2028303146362
2841,1815.8448309898376
2842,1816.4838316440582
2843,1817.1238322257996
2844,1817.765832901001
2845,1818.4088337421417
2846,1819.048834323883
2847,1819.6898348331451
2848,1820.316835641861
2849,1820.9518361091614
2850,1821.6018369197845
2851,1822.2468376159668
2852,1822.8948380947113
2853,1823.5418388843536
2854,1824.1878395080566
2855,1824.829840183258
2856,1825.4678406715393
2857,1826.10884141922
2858,1826.7488420009613
2859,1827.3938426971436
2860,1828.0388433933258
2861,1828.6898438930511
2862,1829.3378446102142
2863,1829.9838452339172
2864,1830.624845981598
2865,1831.2668466567993
2866,1831.9068472385406
2867,1832.5478479862213
2868,1833.186848640442
2869,1833.8268492221832
2870,1834.4698498249054
2871,1835.1168503761292
2872,1835.7578511238098
2873,1836.3978517055511
2874,1837.0348525047302
2875,1837.67085313797
2876,1838.3068537712097
2877,1838.9458544254303
2878,1839.5828549861908
2879,1840.2118556499481
2880,1840.839856147766
2881,1841.463856935501
2882,1842.0958576202393
2883,1842.7258582115173
2884,1843.3538587093353
2885,1843.978859424591
2886,1844.6028599739075
2887,1845.2298607826233
2888,1845.8618612289429
2889,1846.4928619861603
2890,1847.123862504959
2891,1847.7518632411957
2892,1848.3813638687134
2893,1849.010864496231
2894,1849.6388652324677
2895,1850.2578656673431
2896,1850.8708662986755
2897,1851.4848670959473
2898,1852.1088676452637
2899,1852.7318682670593
2900,1853.3578689098358
2901,1853.9918694496155
2902,1854.6248700618744
2903,1855.2558708190918
2904,1855.8848714828491
2905,1856.5168721675873
2906,1857.1548726558685
2907,1857.7948732376099
2908,1858.4378740787506
2909,1859.0818746089935
2910,1859.7278752326965
2911,1860.3758759498596
2912,1861.0248765945435
2913,1861.6708772182465
2914,1862.314877986908
2915,1862.9598784446716
2916,1863.6008791923523
2917,1864.2438797950745
2918,1864.8868803977966
2919,1865.5248811244965
2920,1866.1608817577362
2921,1866.7898824214935
2922,1867.4148831367493
2923,1868.0438838005066
2924,1868.6728842258453
2925,1869.2968850135803
2926,1869.9208855628967
2927,1870.5338861942291
2928,1871.1568868160248
2929,1871.774887561798
2930,1872.391888141632
2931,1873.0058887004852
2932,1873.6198892593384
2933,1874.2328898906708
2934,1874.8408906459808
2935,1875.4438910484314
2936,1876.0528917312622
2937,1876.661892414093
2938,1877.2728929519653
2939,1877.8818936347961
2940,1878.4938943386078
2941,1879.1088948249817
2942,1879.724895477295
2943,1880.341896057129
2944,1880.9598968029022
2945,1881.579897403717
2946,1882.2028980255127
2947,1882.824898481369
2948,1883.4458992481232
2949,1884.0698997974396
2950,1884.6909005641937
2951,1885.3169012069702
2952,1885.947901725769
2953,1886.5789024829865
2954,1887.2039029598236
2955,1887.8289036750793
2956,1888.4509043693542
2957,1889.0749049186707
2958,1889.6919054985046
2959,1890.3079061508179
2960,1890.9309067726135
2961,1891.5539073944092
2962,1892.178908109665
2963,1892.7969086170197
2964,1893.4129092693329
2965,1894.0309097766876
2966,1894.6479105949402
2967,1895.2639112472534
2968,1895.879911661148
2969,1896.4989123344421
2970,1897.120913028717
2971,1897.742913722992
2972,1898.3659143447876
2973,1898.9859149456024
2974,1899.6129155158997
2975,1900.241916179657
2976,1900.8689167499542
2977,1901.4909174442291
2978,1902.1159181594849
2979,1902.7359187602997
2980,1903.3539192676544
2981,1903.9709198474884
2982,1904.5859205722809
2983,1905.2029211521149
2984,1905.818921804428
2985,1906.4349224567413
2986,1907.0479230880737
2987,1907.6599235534668
2988,1908.2699241638184
2989,1908.87992477417
2990,1909.48792552948
2991,1910.0879261493683
2992,1910.6839265823364
2993,1911.2819273471832
2994,1911.8759279251099
2995,1912.4729285240173
2996,1913.0699291229248
2997,1913.6629297733307
2998,1914.255930185318
2999,1914.8529307842255
3000,1915.456931591034
3001,1916.0599319934845
3002,1916.6619327068329
3003,1917.262933254242
3004,1917.870934009552
3005,1918.4779345989227
3006,1919.0809352397919
3007,1919.6809358596802
3008,1920.2819364070892
3009,1920.8799369335175
3010,1921.4759376049042
3011,1922.0699381828308
3012,1922.6669387817383
3013,1923.262939453125
3014,1923.8579399585724
3015,1924.451940536499
3016,1925.039941072464
3017,1925.6259417533875
3018,1926.2099423408508
3019,1926.7929430007935
3020,1927.3779435157776
3021,1927.9629440307617
3022,1928.5449447631836
3023,1929.1329452991486
3024,1929.718945980072
3025,1930.3059463500977
3026,1930.8939471244812
3027,1931.484947681427
3028,1932.0769481658936
3029,1932.6709487438202
3030,1933.2599494457245
3031,1933.8479499816895
3032,1934.4379506111145
3033,1935.0279512405396
3034,1935.6209518909454
3035,1936.2139525413513
3036,1936.8059530258179
3037,1937.4009535312653
3038,1938.001954317093
3039,1938.6059548854828
3040,1939.2099554538727
3041,1939.8169560432434
3042,1940.4189567565918
3043,1941.0209572315216
3044,1941.62295794487
3045,1942.2279584407806
3046,1942.8319590091705
3047,1943.4399597644806
3048,1944.0489602088928
3049,1944.6529610157013
3050,1945.2589614391327
3051,1945.8649621009827
3052,1946.464962720871
3053,1947.0639634132385
3054,1947.660964012146
3055,1948.2579646110535
3056,1948.85196518898
3057,1949.4499657154083
3058,1950.043966293335
3059,1950.638967037201
3060,1951.2299675941467
3061,1951.8209681510925
3062,1952.4119687080383
3063,1953.0029692649841
3064,1953.5919699668884
3065,1954.1789705753326
3066,1954.7679710388184
3067,1955.3569717407227
3068,1955.9449722766876
3069,1956.5329728126526
3070,1957.1229734420776
3071,1957.7129740715027
3072,1958.3049747943878
3073,1958.8999752998352
3074,1959.492975950241
3075,1960.085976600647
3076,1960.6809771060944
3077,1961.276977777481
3078,1961.8699781894684
3079,1962.4619789123535
3080,1963.05397939682
3081,1963.648980140686
3082,1964.2399806976318
3083,1964.8319811820984
3084,1965.4289817810059
3085,1966.0269825458527
3086,1966.6239831447601
3087,1967.2249836921692
3088,1967.8259842395782
3089,1968.423985004425
3090,1969.0209856033325
3091,1969.6209862232208
3092,1970.2159867286682
3093,1970.808987379074
3094,1971.396987915039
3095,1971.984988451004
3096,1972.572988986969
3097,1973.1619896888733
3098,1973.7499902248383
3099,1974.340990781784
3100,1974.93599152565
3101,1975.528992176056
3102,1976.1259927749634
3103,1976.7219932079315
3104,1977.320993900299
3105,1977.9169945716858
3106,1978.509994983673
3107,1979.1069955825806
3108,1979.7049963474274
3109,1980.3039968013763
3110,1980.899997472763
3111,1981.4989981651306
3112,1982.098998785019
3113,1982.7009992599487
3114,1983.3039999008179
3115,1983.909000635147
3116,1984.5140011310577
3117,1985.1180016994476
3118,1985.7210023403168
3119,1986.326003074646
3120,1986.927003622055
3121,1987.5300042629242
3122,1988.1290047168732
3123,1988.7290053367615
3124,1989.3270061016083
3125,1989.9230065345764
3126,1990.5180072784424
3127,1991.1160078048706
3128,1991.7140083312988
3129,1992.3120090961456
3130,1992.907009601593
3131,1993.5010101795197
3132,1994.0930109024048
3133,1994.6840114593506
3134,1995.2750120162964
3135,1995.869012594223
3136,1996.4450130462646
3137,1997.0220136642456
3138,1997.6050143241882
3139,1998.1980149745941
3140,1998.7930154800415
3141,1999.3910162448883
3142,1999.9930167198181
3143,2000.6000173091888
3144,2001.2060179710388
3145,2001.8120186328888
3146,2002.4200191497803
3147,2003.0330197811127
3148,2003.649020433426
3149,2004.2650210857391
3150,2004.8810217380524
3151,2005.4960222244263
3152,2006.1090228557587
3153,2006.7200236320496
3154,2007.3330240249634
3155,2007.9400248527527
3156,2008.5480253696442
3157,2009.1490259170532
3158,2009.7460265159607
3159,2010.3400270938873
3160,2010.9370276927948
3161,2011.5320284366608
3162,2012.130028963089
3163,2012.7240295410156
3164,2013.3170301914215
3165,2013.9170308113098
3166,2014.5240314006805
3167,2015.1280319690704
3168,2015.7315325737
3169,2016.3350331783295
3170,2016.9360337257385
3171,2017.5260343551636
3172,2018.1110351085663
3173,2018.7010354995728
3174,2019.2960362434387
3175,2019.8900368213654
3176,2020.4940373897552
3177,2021.1000380516052
3178,2021.7040386199951
3179,2022.3110392093658
3180,2022.9200398921967
3181,2023.5320405960083
3182,2024.1460411548615
3183,2024.7580416202545
3184,2025.3720424175262
3185,2025.9820430278778
3186,2026.5920436382294
3187,2027.202044248581
3188,2027.8120448589325
3189,2028.4230453968048
3190,2029.0340459346771
3191,2029.6410465240479
3192,2030.246047258377
3193,2030.8420479297638
3194,2031.4300484657288
3195,2032.033049106598
3196,2032.6420495510101
3197,2033.24805021286
3198,2033.857050895691
3199,2034.4640514850616
3200,2035.0670521259308
3201,2035.6690526008606
3202,2036.2680532932281
3203,2036.8740539550781
3204,2037.4850544929504
3205,2038.0990550518036
3206,2038.7110557556152
3207,2039.3270564079285
3208,2039.9470570087433
3209,2040.5640575885773
3210,2041.178058385849
3211,2041.7880589962006
3212,2042.4030594825745
3213,2043.015060186386
3214,2043.6280608177185
3215,2044.2390613555908
3216,2044.8500618934631
3217,2045.4630625247955
3218,2046.076063156128
3219,2046.6880638599396
3220,2047.3000645637512
3221,2047.913064956665
3222,2048.5250656604767
3223,2049.1310663223267
3224,2049.7360668182373
3225,2050.345067501068
3226,2050.9570682048798
3227,2051.557068824768
3228,2052.156069278717
3229,2052.7500698566437
3230,2053.339070558548
3231,2053.927071094513
3232,2054.519071817398
3233,2055.1090722084045
3234,2055.697072982788
3235,2056.286073446274
3236,2056.8720741271973
3237,2057.461074590683
3238,2058.0580751895905
3239,2058.655075788498
3240,2059.2520763874054
3241,2059.848077058792
3242,2060.4450776576996
3243,2061.050078392029
3244,2061.6570789813995
3245,2062.267079591751
3246,2062.8750801086426
3247,2063.4830808639526
3248,2064.094081401825
3249,2064.7070820331573
3250,2065.3210825920105
3251,2065.939083337784
3252,2066.5540838241577
3253,2067.1710844039917
3254,2067.786085128784
3255,2068.403085708618
3256,2069.0220863819122
3257,2069.6460869312286
3258,2070.2660875320435
3259,2070.8830881118774
3260,2071.4900889396667
3261,2072.0950894355774
3262,2072.7060899734497
3263,2073.3180906772614
3264,2073.9290912151337
3265,2074.5460920333862
3266,2075.1580924987793
3267,2075.770093202591
3268,2076.384093761444
3269,2077.0050942897797
3270,2077.6270949840546
3271,2078.25009560585
3272,2078.874096393585
3273,2079.5010969638824
3274,2080.1300976276398
3275,2080.7610981464386
3276,2081.3960988521576
3277,2082.033099412918
3278,2082.6651000976562
3279,2083.3001008033752
3280,2083.9291014671326
3281,2084.55810213089
3282,2085.185102701187
3283,2085.8111033439636
3284,2086.43510389328
3285,2087.054104566574
3286,2087.6701052188873
3287,2088.2941057682037
3288,2088.924106359482
3289,2089.5521070957184
3290,2090.1791076660156
3291,2090.8041083812714
3292,2091.422108888626
3293,2092.0371096134186
3294,2092.64711022377
3295,2093.2561106681824
3296,2093.8631114959717
3297,2094.4651119709015
3298,2095.0701127052307
3299,2095.682113170624
3300,2096.3021137714386
3301,2096.9261145591736
3302,2097.5621151924133
3303,2098.198115825653
3304,2098.834116458893
3305,2099.4601171016693
3306,2100.0841176509857
3307,2100.714118242264
3308,2101.351119041443
3309,2101.9881196022034
3310,2102.6331202983856
3311,2103.2791209220886
3312,2103.929121494293
3313,2104.5761222839355
3314,2105.2191228866577
3315,2105.859123468399
3316,2106.4991240501404
3317,2107.141124725342
3318,2107.784125328064
3319,2108.4201259613037
3320,2109.043126821518
3321,2109.6621272563934
3322,2110.2991280555725
3323,2110.9321286678314
3324,2111.5651292800903
3325,2112.1931297779083
3326,2112.818130493164
3327,2113.440131187439
3328,2114.0611317157745
3329,2114.689132452011
3330,2115.319133043289
3331,2115.944133758545
3332,2116.5731341838837
3333,2117.2001349925995
3334,2117.829135656357
3335,2118.456136226654
3336,2119.0821368694305
3337,2119.705137491226
3338,2120.3241381645203
3339,2120.942138671875
3340,2121.561139345169
3341,2122.175139904022
3342,2122.784140586853
3343,2123.3961412906647
3344,2124.0161418914795
3345,2124.6361424922943
3346,2125.2551431655884
3347,2125.8811435699463
3348,2126.503144264221
3349,2127.1211450099945
3350,2127.734145641327
3351,2128.3361461162567
3352,2128.9431467056274
3353,2129.5471472740173
3354,2130.1501479148865
3355,2130.752148628235
3356,2131.358149290085
3357,2131.9631497859955
3358,2132.5721504688263
3359,2133.1831510066986
3360,2133.7971515655518
3361,2134.413152217865
3362,2135.0271530151367
3363,2135.6421535015106
3364,2136.2611541748047
3365,2136.877154827118
3366,2137.493155479431
3367,2138.110156059265
3368,2138.73015666008
3369,2139.349157333374
3370,2139.9671578407288
3371,2140.583158493042
3372,2141.1981592178345
3373,2141.8121597766876
3374,2142.436160326004
3375,2143.060161113739
3376,2143.6791615486145
3377,2144.281162261963
3378,2144.895162820816
3379,2145.51416349411
3380,2146.131164073944
3381,2146.751164674759
3382,2147.368165254593
3383,2147.9881660938263
3384,2148.5991666316986
3385,2149.1981670856476
3386,2149.8041677474976
3387,2150.4021685123444
3388,2151.0081689357758
3389,2151.6231696605682
3390,2152.245170354843
3391,2152.868170976639
3392,2153.492171525955
3393,2154.1211721897125
3394,2154.742172718048
3395,2155.3741734027863
3396,2156.0091741085052
3397,2156.643174648285
3398,2157.278175354004
3399,2157.913176059723
3400,2158.541176557541
3401,2159.1691772937775
3402,2159.795177936554
3403,2160.4161784648895
3404,2161.0396790504456
3405,2161.66317987442
3406,2162.291180372238
3407,2162.9021809101105
3408,2163.5101816654205
3409,2164.123182296753
3410,2164.729182958603
3411,2165.3351833820343
3412,2165.944184064865
3413,2166.5521845817566
3414,2167.157185316086
3415,2167.757185935974
3416,2168.3691866397858
3417,2168.9761872291565
3418,2169.581187725067
3419,2170.185188293457
3420,2170.788188934326
3421,2171.3961896896362
3422,2172.003190279007
3423,2172.612190723419
3424,2173.218191385269
3425,2173.8291919231415
3426,2174.442192554474
3427,2175.050193309784
3428,2175.6591939926147
3429,2176.267194509506
3430,2176.872195005417
3431,2177.478195667267
3432,2178.1041963100433
3433,2178.73019695282
3434,2179.357197523117
3435,2179.9871983528137
3436,2180.612198829651
3437,2181.239199399948
3438,2181.861200094223
3439,2182.4742007255554
3440,2183.100201368332
3441,2183.7262020111084
3442,2184.3532025814056
3443,2184.9932034015656
3444,2185.631203889847
3445,2186.273204565048
3446,2186.9152052402496
3447,2187.5592057704926
3448,2188.1842064857483
3449,2188.8112070560455
3450,2189.4382078647614
3451,2190.057208299637
3452,2190.6772091388702
3453,2191.2852096557617
3454,2191.888210296631
3455,2192.494210958481
3456,2193.0882115364075
3457,2193.6922121047974
3458,2194.3052127361298
3459,2194.924213409424
3460,2195.5452139377594
3461,2196.1642146110535
3462,2196.7802152633667
3463,2197.4032158851624
3464,2198.039216518402
3465,2198.675217151642
3466,2199.3122177124023
3467,2199.956218481064
3468,2200.5902190208435
3469,2201.224219560623
3470,2201.860220193863
3471,2202.500221014023
3472,2203.1372215747833
3473,2203.7772221565247
3474,2204.4152228832245
3475,2205.057223558426
3476,2205.698224067688
3477,2206.338224887848
3478,2206.9742255210876
3479,2207.606226205826
3480,2208.236226797104
3481,2208.882227420807
3482,2209.538228034973
3483,2210.1992287635803
3484,2210.8662292957306
3485,2211.545230150223
3486,2212.2232308387756
3487,2212.9022314548492
3488,2213.5682320594788
3489,2214.2302327156067
3490,2214.896233558655
3491,2215.5672340393066
3492,2216.2342348098755
3493,2216.9042353630066
3494,2217.5742361545563
3495,2218.2462368011475
3496,2218.917237520218
3497,2219.5832381248474
3498,2220.249238729477
3499,2220.9142394065857
3500,2221.5702402591705
3501,2222.2282407283783
3502,2222.8912415504456
3503,2223.562242269516
3504,2224.232242822647
3505,2224.902243614197
3506,2225.574244260788
3507,2226.2412447929382
3508,2226.9052455425262
3509,2227.568246126175
3510,2228.234246969223
3511,2228.899247646332
3512,2229.568248271942
3513,2230.2342488765717
3514,2230.892249584198
3515,2231.540250301361
3516,2232.2202508449554
3517,2232.896251678467
3518,2233.5732522010803
3519,2234.2482528686523
3520,2234.9172537326813
3521,2235.58225440979
3522,2236.247255086899
3523,2236.914255619049
3524,2237.573256254196
3525,2238.238256931305
3526,2238.9062576293945
3527,2239.585258245468
3528,2240.2722589969635
3529,2240.9662597179413
3530,2241.6532604694366
3531,2242.3422610759735
3532,2243.024261713028
3533,2243.7072625160217
3534,2244.3932631015778
3535,2245.0892639160156
3536,2245.7862646579742
3537,2246.481265306473
3538,2247.171266078949
3539,2247.8562667369843
3540,2248.5432674884796
3541,2249.226268053055
3542,2249.903268814087
3543,2250.575269460678
3544,2251.2432701587677
3545,2251.9062707424164
3546,2252.606271505356
3547,2253.2772722244263
3548,2253.942272901535
3549,2254.631273508072
3550,2255.316274166107
3551,2255.99627494812
3552,2256.669275522232
3553,2257.3382761478424
3554,2258.003276824951
3555,2258.671777486801
3556,2259.340278148651
3557,2260.0112788677216
3558,2260.6602795124054
3559,2261.3182802200317
3560,2261.977280855179
3561,2262.6342816352844
3562,2263.2912821769714
3563,2263.951282978058
3564,2264.609283685684
3565,2265.2652842998505
3566,2265.923285007477
3567,2266.5782854557037
3568,2267.2352862358093
3569,2267.8962869644165
3570,2268.565287590027
3571,2269.2432882785797
3572,2269.926288843155
3573,2270.6072895526886
3574,2271.2872903347015
3575,2271.971291065216
3576,2272.6562917232513
3577,2273.338292360306
3578,2274.025293111801
3579,2274.7072937488556
3580,2275.394294500351
3581,2276.0792951583862
3582,2276.7632958889008
3583,2277.446296453476
3584,2278.124297142029
3585,2278.7972979545593
3586,2279.46879863739
3587,2280.140299320221
3588,2280.815299987793
3589,2281.4913005828857
3590,2282.1693012714386
3591,2282.840301990509
3592,2283.488302707672
3593,2284.1383032798767
3594,2284.791303873062
3595,2285.4633045196533
3596,2286.147305250168
3597,2286.850306034088
3598,2287.5513067245483
3599,2288.2493073940277
3600,2288.9453082084656
3601,2289.638308763504
3602,2290.332309484482
3603,2291.0243101119995
3604,2291.7073109149933
3605,2292.3893115520477
3606,2293.071312189102
3607,2293.754312992096
3608,2294.4343135356903
3609,2295.115314245224
3610,2295.7913150787354
3611,2296.4743156433105
3612,2297.1543164253235
3613,2297.833317041397
3614,2298.5053176879883
3615,2299.172318458557
3616,2299.8383190631866
3617,2300.5033197402954
3618,2301.1753203868866
3619,2301.8503210544586
3620,2302.5273218154907
3621,2303.199322462082
3622,2303.8593232631683
3623,2304.524323940277
3624,2305.2073245048523
3625,2305.885325193405
3626,2306.565325975418
3627,2307.243326663971
3628,2307.916327238083
3629,2308.589327812195
3630,2309.2513287067413
3631,2309.91232919693
3632,2310.574329853058
3633,2311.232330560684
3634,2311.902331352234
3635,2312.574331998825
3636,2313.234332561493
3637,2313.8953332901
3638,2314.583333969116
3639,2315.279334783554
3640,2315.96733546257
3641,2316.657335996628
3642,2317.3383367061615
3643,2318.0153374671936
3644,2318.683338165283
3645,2319.3393387794495
3646,2319.993339538574
3647,2320.6363401412964
3648,2321.272340774536
3649,2321.9073412418365
3650,2322.564342021942
3651,2323.237342596054
3652,2323.920343399048
3653,2324.610344171524
3654,2325.2913448810577
3655,2325.961345434189
3656,2326.6373460292816
3657,2327.3093469142914
3658,2327.988347530365
3659,2328.658348083496
3660,2329.328348875046
3661,2329.9933495521545
3662,2330.6793501377106
3663,2331.361350774765
3664,2332.0353515148163
3665,2332.7043521404266
3666,2333.3703529834747
3667,2334.0313534736633
3668,2334.6913542747498
3669,2335.3563549518585
3670,2336.027355670929
3671,2336.702356338501
3672,2337.385356903076
3673,2338.063357591629
3674,2338.7443583011627
3675,2339.429358959198
3676,2340.122359752655
3677,2340.808360338211
3678,2341.490361213684
3679,2342.1753618717194
3680,2342.862362384796
3681,2343.544363260269
3682,2344.2243638038635
3683,2344.9043645858765
3684,2345.5873651504517
3685,2346.261365890503
3686,2346.9313666820526
3687,2347.5943672657013
3688,2348.2533679008484
3689,2348.910368680954
3690,2349.567369222641
3691,2350.229369878769
3692,2350.9003705978394
3693,2351.57137131691
3694,2352.241371870041
3695,2352.9063725471497
3696,2353.5743732452393
3697,2354.2383739948273
3698,2354.901374578476
3699,2355.564375400543
3700,2356.224375963211
3701,2356.8823766708374
3702,2357.547377347946
3703,2358.2133779525757
3704,2358.8783786296844
3705,2359.5423793792725
3706,2360.2023799419403
3707,2360.857380628586
3708,2361.5123813152313
3709,2362.1653819084167
3710,2362.818382501602
3711,2363.4623832702637
3712,2364.1143839359283
3713,2364.7753846645355
3714,2365.444385290146
3715,2366.117385864258
3716,2366.789386510849
3717,2367.466387271881
3718,2368.1383879184723
3719,2368.803388595581
3720,2369.4663894176483
3721,2370.1253900527954
3722,2370.789390563965
3723,2371.453391313553
3724,2372.1203920841217
3725,2372.786392688751
3726,2373.4523932933807
3727,2374.1203939914703
3728,2374.78839468956
3729,2375.460395336151
3730,2376.1293959617615
3731,2376.7983968257904
3732,2377.4633972644806
3733,2378.1293981075287
3734,2378.795398712158
3735,2379.457399368286
3736,2380.1124000549316
3737,2380.767400741577
3738,2381.4264013767242
3739,2382.0904021263123
3740,2382.7544026374817
3741,2383.417403459549
3742,2384.0754039287567
3743,2384.7434046268463
3744,2385.4124054908752
3745,2386.083405971527
3746,2386.748406648636
3747,2387.417407512665
3748,2388.0904080867767
3749,2388.7664086818695
3750,2389.4414093494415
3751,2390.112410068512
3752,2390.7834107875824
3753,2391.4574115276337
3754,2392.1344122886658
3755,2392.81641292572
3756,2393.495413541794
3757,2394.1744141578674
3758,2394.850414991379
3759,2395.5284156799316
3760,2396.2094163894653
3761,2396.8934168815613
3762,2397.5724177360535
3763,2398.246418237686
3764,2398.9224190711975
3765,2399.5974197387695
3766,2400.265420436859
3767,2400.9334211349487
3768,2401.60342168808
3769,2402.275422334671
3770,2402.941423177719
3771,2403.600423812866
3772,2404.2404243946075
3773,2404.893424987793
3774,2405.5584256649017
3775,2406.2284264564514
3776,2406.899427175522
3777,2407.568427801132
3778,2408.242428302765
3779,2408.921429157257
3780,2409.596429824829
3781,2410.272430419922
3782,2410.947431087494
3783,2411.619431734085
3784,2412.2924325466156
3785,2412.9674332141876
3786,2413.639433860779
3787,2414.31143450737
3788,2414.9804351329803
3789,2415.6524357795715
3790,2416.328436613083
3791,2417.0044372081757
3792,2417.677438020706
3793,2418.350438594818
3794,2419.0244393348694
3795,2419.700439929962
3796,2420.3724405765533
3797,2421.042441368103
3798,2421.714442014694
3799,2422.3854427337646
3800,2423.052443265915
3801,2423.716444015503
3802,2424.3814446926117
3803,2425.0444452762604
3804,2425.7054460048676
3805,2426.3774466514587
3806,2427.0504474639893
3807,2427.715448141098
3808,2428.3764486312866
3809,2429.0424494743347
3810,2429.7104501724243
3811,2430.384450674057
3812,2431.0584514141083
3813,2431.7324521541595
3814,2432.4024527072906
3815,2433.0724534988403
3816,2433.7434542179108
3817,2434.4204547405243
3818,2435.0994555950165
3819,2435.7744562625885
3820,2436.4524569511414
3821,2437.133457660675
3822,2437.8184583187103
3823,2438.5044589042664
3824,2439.1914596557617
3825,2439.876460313797
3826,2440.562460899353
3827,2441.252461671829
3828,2441.9474623203278
3829,2442.632462978363
3830,2443.3164637088776
3831,2444.000464439392
3832,2444.6894652843475
3833,2445.3774659633636
3834,2446.0614664554596
3835,2446.7424671649933
3836,2447.4214680194855
3837,2448.1064686775208
3838,2448.791469335556
3839,2449.480469942093
3840,2450.1614706516266
3841,2450.8364713191986
3842,2451.526472091675
3843,2452.216472864151
3844,2452.9094734191895
3845,2453.6054742336273
3846,2454.2964749336243
3847,2454.983475446701
3848,2455.671476125717
3849,2456.3604769706726
3850,2457.055477619171
3851,2457.748478412628
3852,2458.439479112625
3853,2459.1324796676636
3854,2459.8244805336
3855,2460.509481191635
3856,2461.1934819221497
3857,2461.875482559204
3858,2462.5594832897186
3859,2463.2454838752747
3860,2463.93248462677
3861,2464.6164853572845
3862,2465.3044860363007
3863,2465.997486591339
3864,2466.688487291336
3865,2467.3784880638123
3866,2468.0644886493683
3867,2468.750489473343
3868,2469.438490152359
3869,2470.1234908103943
3870,2470.8054914474487
3871,2471.4854922294617
3872,2472.1664929389954
3873,2472.8464934825897
3874,2473.5244941711426
3875,2474.2034950256348
3876,2474.8824956417084
3877,2475.5694963932037
3878,2476.2564969062805
3879,2476.945497751236
3880,2477.634498357773
3881,2478.32749915123
3882,2479.015499830246
3883,2479.7025005817413
3884,2480.391501188278
3885,2481.0815019607544
3886,2481.7695026397705
3887,2482.4525032043457
3888,2483.139503955841
3889,2483.832504749298
3890,2484.518505334854
3891,2485.199506044388
3892,2485.886506795883
3893,2486.57350730896
3894,2487.253508090973
3895,2487.9375088214874
3896,2488.618509531021
3897,2489.304510116577
3898,2489.985510826111
3899,2490.6665115356445
3900,2491.345512151718
3901,2492.0275127887726
3902,2492.713513612747
3903,2493.39351439476
3904,2494.0725150108337
3905,2494.752515554428
3906,2495.434516429901
3907,2496.110517024994
3908,2496.7885177135468
3909,2497.462518453598
3910,2498.1415190696716
3911,2498.8175196647644
3912,2499.4935204982758
3913,2500.1695210933685
3914,2500.84352183342
3915,2501.5165224075317
3916,2502.1815230846405
3917,2502.8475239276886
3918,2503.5235245227814
3919,2504.18652510643
3920,2504.8495259284973
3921,2505.501526594162
3922,2506.1485271453857
3923,2506.8005278110504
3924,2507.454528570175
3925,2508.114529132843
3926,2508.784529685974
3927,2509.454530477524
3928,2510.1305310726166
3929,2510.8085317611694
3930,2511.4935324192047
3931,2512.1815333366394
3932,2512.8675339221954
3933,2513.5555346012115
3934,2514.242535352707
3935,2514.9325358867645
3936,2515.6175367832184
3937,2516.3055374622345
3938,2516.998538017273
3939,2517.69153881073
3940,2518.382539510727
3941,2519.0695402622223
3942,2519.7605409622192
3943,2520.4485416412354
3944,2521.1345422267914
3945,2521.8145430088043
3946,2522.4945435523987
3947,2523.1725442409515
3948,2523.8535449504852
3949,2524.5285456180573
3950,2525.1995463371277
3951,2525.871546983719
3952,2526.5365476608276
3953,2527.2005484104156
3954,2527.8595490455627
3955,2528.517549753189
3956,2529.18755030632
3957,2529.8605511188507
3958,2530.5335516929626
3959,2531.2105524539948
3960,2531.8785531520844
3961,2532.5485537052155
3962,2533.2205543518066
3963,2533.896555185318
3964,2534.5725557804108
3965,2535.2505564689636
3966,2535.9335572719574
3967,2536.6175577640533
3968,2537.3105585575104
3969,2538.002559185028
3970,2538.695559978485
3971,2539.3905606269836
3972,2540.0835614204407
3973,2540.7775621414185
3974,2541.469562768936
3975,2542.1575634479523
3976,2542.8455641269684
3977,2543.5365648269653
3978,2544.2235655784607
3979,2544.9045662879944
3980,2545.585566997528
3981,2546.2645676136017
3982,2546.9445683956146
3983,2547.6225690841675
3984,2548.301569700241
3985,2548.977570295334
3986,2549.651571035385
3987,2550.326571702957
3988,2550.9985723495483
3989,2551.665573120117
3990,2552.3425736427307
3991,2553.018574476242
3992,2553.6975750923157
3993,2554.3725757598877
3994,2555.046576499939
3995,2555.71857714653
3996,2556.393577814102
3997,2557.0675785541534
3998,2557.7395792007446
3999,2558.4145798683167
4000,2559.0915806293488
4001,2559.766581296921
4002,2560.4435818195343
4003,2561.1225826740265
4004,2561.8005833625793
4005,2562.478584051132
4006,2563.154584646225
4007,2563.8305852413177
4008,2564.5115859508514
4009,2565.192586660385
4010,2565.8655874729156
4011,2566.537588119507
4012,2567.209588766098
4013,2567.88458943367
4014,2568.5535900592804
4015,2569.2225906848907
4016,2569.8895914554596
4017,2570.55859208107
4018,2571.2285928726196
4019,2571.894593477249
4020,2572.558594226837
4021,2573.20459485054
4022,2573.8655953407288
4023,2574.540596008301
4024,2575.2135968208313
4025,2575.8835973739624
4026,2576.554598093033
4027,2577.2255988121033
4028,2577.888599395752
4029,2578.5536000728607
4030,2579.2176008224487
4031,2579.888601541519
4032,2580.5686020851135
4033,2581.254602909088
4034,2581.9426035881042
4035,2582.6326043605804
4036,2583.325604915619
4037,2584.0246057510376
4038,2584.721606492996
4039,2585.4206070899963
4040,2586.117607831955
4041,2586.8146085739136
4042,2587.5086092948914
4043,2588.1996099948883
4044,2588.8876106739044
4045,2589.5726113319397
4046,2590.256612062454
4047,2590.932612657547
4048,2591.605613231659
4049,2592.282613992691
4050,2592.960614681244
4051,2593.634615421295
4052,2594.3016159534454
4053,2594.9676167964935
4054,2595.647617340088
4055,2596.3316180706024
4056,2597.015618801117
4057,2597.6996195316315
4058,2598.380620241165
4059,2599.061620950699
4060,2599.7486214637756
4061,2600.4416222572327
4062,2601.1336228847504
4063,2601.8316235542297
4064,2602.53662443161
4065,2603.2446250915527
4066,2603.958625793457
4067,2604.6666264533997
4068,2605.377627134323
4069,2606.0856280326843
4070,2606.791628599167
4071,2607.4936294555664
4072,2608.1906299591064
4073,2608.8846306800842
4074,2609.5796313285828
4075,2610.266632080078
4076,2610.9516327381134
4077,2611.6306335926056
4078,2612.3166341781616
4079,2613.0026350021362
4080,2613.6886355876923
4081,2614.3706362247467
4082,2615.058636903763
4083,2615.7446377277374
4084,2616.428638458252
4085,2617.106639146805
4086,2617.784639596939
4087,2618.465640306473
4088,2619.1486411094666
4089,2619.8246417045593
4090,2620.502642393112
4091,2621.1846430301666
4092,2621.8676438331604
4093,2622.5476446151733
4094,2623.2326452732086
4095,2623.917645931244
4096,2624.602646589279
4097,2625.2866473197937
4098,2625.9706480503082
4099,2626.6536486148834
4100,2627.3416492938995
4101,2628.0216500759125
4102,2628.701650619507
4103,2629.3856513500214
4104,2630.0706520080566
4105,2630.7526528835297
4106,2631.432653427124
4107,2632.110654115677
4108,2632.7946548461914
4109,2633.477655649185
4110,2634.155656337738
4111,2634.831656932831
4112,2635.506657600403
4113,2636.175658226013
4114,2636.8416588306427
4115,2637.50465965271
4116,2638.1816601753235
4117,2638.856661081314
4118,2639.5386617183685
4119,2640.2136623859406
4120,2640.8866629600525
4121,2641.562663793564
4122,2642.243664264679
4123,2642.921664953232
4124,2643.6026656627655
4125,2644.28666639328
4126,2644.9686670303345
4127,2645.654667854309
4128,2646.3336684703827
4129,2647.015669107437
4130,2647.696669816971
4131,2648.3786704540253
4132,2649.0576713085175
4133,2649.738672018051
4134,2650.4176726341248
4135,2651.0966732501984
4136,2651.7766740322113
4137,2652.4476747512817
4138,2653.114675283432
4139,2653.786675930023
4140,2654.4606766700745
4141,2655.1276774406433
4142,2655.788677930832
4143,2656.4456787109375
4144,2657.1106793880463
4145,2657.777680158615
4146,2658.4606807231903
4147,2659.149681329727
4148,2659.8376820087433
4149,2660.5406827926636
4150,2661.241683483124
4151,2661.947684288025
4152,2662.654685020447
4153,2663.355685710907
4154,2664.0616862773895
4155,2664.753687143326
4156,2665.4346878528595
4157,2666.111688375473
4158,2666.7796890735626
4159,2667.44068980217
4160,2668.099690437317
4161,2668.760691165924
4162,2669.4286918640137
4163,2670.098692417145
4164,2670.7666931152344
4165,2671.4406938552856
4166,2672.1086945533752
4167,2672.7796952724457
4168,2673.451695919037
4169,2674.126696586609
4170,2674.8026971817017
4171,2675.4806978702545
4172,2676.16569852829
4173,2676.8486993312836
4174,2677.535700082779
4175,2678.219700574875
4176,2678.907701253891
4177,2679.5907020568848
4178,2680.272702693939
4179,2680.958703517914
4180,2681.6407041549683
4181,2682.319704771042
4182,2682.9977054595947
4183,2683.6707062721252
4184,2684.3427069187164
4185,2685.008707523346
4186,2685.681708097458
4187,2686.3597087860107
4188,2687.033709526062
4189,2687.705710172653
4190,2688.380710840225
4191,2689.0577116012573
4192,2689.736712217331
4193,2690.411712884903
4194,2691.090713739395
4195,2691.765714406967
4196,2692.4397149086
4197,2693.108715772629
4198,2693.77871632576
4199,2694.4547169208527
4200,2695.130717754364
4201,2695.8157184123993
4202,2696.496719121933
4203,2697.1767196655273
4204,2697.860720396042
4205,2698.5447211265564
4206,2699.22772192955
4207,2699.905722618103
4208,2700.5847232341766
4209,2701.2627239227295
4210,2701.944724559784
4211,2702.624725341797
4212,2703.3047258853912
4213,2703.987726688385
4214,2704.67072725296
4215,2705.3547279834747
4216,2706.036728620529
4217,2706.718729496002
4218,2707.397730112076
4219,2708.0787308216095
4220,2708.758731365204
4221,2709.438732147217
4222,2710.113732814789
4223,2710.7927334308624
4224,2711.468734264374
4225,2712.1467349529266
4226,2712.8307354450226
4227,2713.5107362270355
4228,2714.191736936569
4229,2714.8737375736237
4230,2715.5487382411957
4231,2716.222738981247
4232,2716.895739555359
4233,2717.5677404403687
4234,2718.2407410144806
4235,2718.9137415885925
4236,2719.583742380142
4237,2720.2577431201935
4238,2720.9307436943054
4239,2721.6047444343567
4240,2722.274744987488
4241,2722.9467458724976
4242,2723.6187465190887
4243,2724.2917470932007
4244,2724.9617478847504
4245,2725.62774848938
4246,2726.2937490940094
4247,2726.963749885559
4248,2727.6187505722046
4249,2728.274751186371
4250,2728.9277517795563
4251,2729.5837523937225
4252,2730.241753101349
4253,2730.9017536640167
4254,2731.5637545585632
4255,2732.225755214691
4256,2732.8917558193207
4257,2733.5597565174103
4258,2734.2297570705414
4259,2734.9017577171326
4260,2735.574758529663
4261,2736.2437591552734
4262,2736.9167597293854
4263,2737.589760541916
4264,2738.269761323929
4265,2738.9477620124817
4266,2739.625762462616
4267,2740.3067631721497
4268,2740.985764026642
4269,2741.6697647571564
4270,2742.359765291214
4271,2743.0447659492493
4272,2743.730766773224
4273,2744.4177675247192
4274,2745.1027681827545
4275,2745.782768726349
4276,2746.4657695293427
4277,2747.1447701454163
4278,2747.82377076149
4279,2748.4947714805603
4280,2749.167772293091
4281,2749.837772846222
4282,2750.509773492813
4283,2751.1857743263245
4284,2751.8577749729156
4285,2752.528775691986
4286,2753.199776172638
4287,2753.8717770576477
4288,2754.538777589798
4289,2755.2077782154083
4290,2755.8837790489197
4291,2756.5627796649933
4292,2757.240780353546
4293,2757.916780948639
4294,2758.591781616211
4295,2759.2647824287415
4296,2759.9387831687927
4297,2760.610783815384
4298,2761.2817845344543
4299,2761.9507851600647
4300,2762.6187858581543
4301,2763.2857863903046
4302,2763.951786994934
4303,2764.615787744522
4304,2765.2867884635925
4305,2765.9627890586853
4306,2766.6397898197174
4307,2767.3167905807495
4308,2767.996791124344
4309,2768.6747918128967
4310,2769.350792646408
4311,2770.0247931480408
4312,2770.6947939395905
4313,2771.3707945346832
4314,2772.0437953472137
4315,2772.7167959213257
4316,2773.3867967128754
4317,2774.0557973384857
4318,2774.727797985077
4319,2775.399798631668
4320,2776.066799402237
4321,2776.726799964905
4322,2777.387800693512
4323,2778.0548012256622
4324,2778.722801923752
4325,2779.3888027668
4326,2780.0528032779694
4327,2780.7188041210175
4328,2781.384804725647
4329,2782.0498054027557
4330,2782.719805955887
4331,2783.3928067684174
4332,2784.063807487488
4333,2784.73880815506
4334,2785.408808708191
4335,2786.069809436798
4336,2786.718810081482
4337,2787.3818106651306
4338,2788.071811437607
4339,2788.7538120746613
4340,2789.4308128356934
4341,2790.1108133792877
4342,2790.7918140888214
4343,2791.4668147563934
4344,2792.1418154239655
4345,2792.816816329956
4346,2793.4808168411255
4347,2794.1438176631927
4348,2794.794818162918
4349,2795.4498188495636
4350,2796.10581946373
4351,2796.761820077896
4352,2797.417820930481
4353,2798.0818214416504
4354,2798.7398221492767
4355,2799.4018228054047
4356,2800.061823606491
4357,2800.720824241638
4358,2801.372824907303
4359,2802.0228254795074
4360,2802.6718261241913
4361,2803.3178267478943
4362,2803.9598274230957
4363,2804.6118280887604
4364,2805.2598288059235
4365,2805.9168293476105
4366,2806.5788300037384
4367,2807.2458307743073
4368,2807.907831430435
4369,2808.5688321590424
4370,2809.232832670212
4371,2809.895833492279
4372,2810.5543341636658
4373,2811.2128348350525
4374,2811.873835325241
4375,2812.524836063385
4376,2813.173836708069
4377,2813.8268373012543
4378,2814.477838039398
4379,2815.129838705063
4380,2815.7838394641876
4381,2816.438840150833
4382,2817.0918407440186
4383,2817.746841430664
4384,2818.4008419513702
4385,2819.0588426589966
4386,2819.716843366623
4387,2820.37584400177
4388,2821.0318446159363
4389,2821.688845396042
4390,2822.3488459587097
4391,2823.0058467388153
4392,2823.660847425461
4393,2824.3088479042053
4394,2824.9588487148285
4395,2825.606849193573
4396,2826.2538499832153
4397,2826.8988506793976
4398,2827.5558512210846
4399,2828.2178518772125
4400,2828.8798525333405
4401,2829.539853334427
4402,2830.1978538036346
4403,2830.8508546352386
4404,2831.5078551769257
4405,2832.157855987549
4406,2832.8048565387726
4407,2833.448857307434
4408,2834.097857952118
4409,2834.7488584518433
4410,2835.399859189987
4411,2836.0528597831726
4412,2836.709860563278
4413,2837.369861125946
4414,2838.028861761093
4415,2838.6818623542786
4416,2839.3378632068634
4417,2839.9948637485504
4418,2840.6538643836975
4419,2841.3168652057648
4420,2841.9718658924103
4421,2842.6258664131165
4422,2843.278867006302
4423,2843.931867837906
4424,2844.5848684310913
4425,2845.238869190216
4426,2845.8868696689606
4427,2846.533870458603
4428,2847.1788709163666
4429,2847.823871612549
4430,2848.4728722572327
4431,2849.1268730163574
4432,2849.776873588562
4433,2850.425874233246
4434,2851.0768749713898
4435,2851.7288756370544
4436,2852.3778762817383
4437,2853.0238769054413
4438,2853.6718776226044
4439,2854.3178782463074
4440,2854.969878911972
4441,2855.615879535675
4442,2856.2678802013397
4443,2856.9178807735443
4444,2857.569881439209
4445,2858.2168822288513
4446,2858.8628828525543
4447,2859.509883403778
4448,2860.157884120941
4449,2860.803884744644
4450,2861.4508855342865
4451,2862.09588599205
4452,2862.7438867092133
4453,2863.395887374878
4454,2864.0428879261017
4455,2864.6958887577057
4456,2865.346889257431
4457,2865.995889902115
4458,2866.6388907432556
4459,2867.280891418457
4460,2867.9178919792175
4461,2868.5608925819397
4462,2869.213893175125
4463,2869.8748939037323
4464,2870.531894683838
4465,2871.187895298004
4466,2871.839895963669
4467,2872.490896463394
4468,2873.1368973255157
4469,2873.787897825241
4470,2874.436898469925
4471,2875.087899208069
4472,2875.741899728775
4473,2876.3959004879
4474,2877.051901102066
4475,2877.705901861191
4476,2878.3659024238586
4477,2879.026903152466
4478,2879.683903694153
4479,2880.3399045467377
4480,2880.993905067444
4481,2881.646905899048
4482,2882.297906398773
4483,2882.948907136917
4484,2883.597907781601
4485,2884.2479083538055
4486,2884.892909049988
4487,2885.538909673691
4488,2886.191910266876
4489,2886.8399109840393
4490,2887.4869117736816
4491,2888.134912252426
4492,2888.78391289711
4493,2889.4359135627747
4494,2890.0849142074585
4495,2890.73091506958
4496,2891.374915599823
4497,2892.0249161720276
4498,2892.6729168891907
4499,2893.3229174613953
4500,2893.968918323517
4501,2894.6169188022614
4502,2895.2679195404053
4503,2895.9159202575684
4504,2896.562920808792
4505,2897.2129213809967
4506,2897.8659222126007
4507,2898.518922805786
4508,2899.1759235858917
4509,2899.831924200058
4510,2900.4839248657227
4511,2901.1449253559113
4512,2901.7999260425568
4513,2902.460926771164
4514,2903.1149275302887
4515,2903.769928216934
4516,2904.419928789139
4517,2905.0749294757843
4518,2905.726930141449
4519,2906.380930662155
4520,2907.031931400299
4521,2907.6819319725037
4522,2908.3309326171875
4523,2908.9819333553314
4524,2909.6309340000153
4525,2910.28093457222
4526,2910.9319353103638
4527,2911.5859360694885
4528,2912.233936548233
4529,2912.8809373378754
4530,2913.53093791008
4531,2914.1849386692047
4532,2914.83793926239
4533,2915.4879398345947
4534,2916.1369404792786
4535,2916.7869412899017
4536,2917.437941789627
4537,2918.086942434311
4538,2918.7339432239532
4539,2919.3869438171387
4540,2920.0389444828033
4541,2920.6899452209473
4542,2921.3379456996918
4543,2921.9839465618134
4544,2922.632947206497
4545,2923.279947757721
4546,2923.925948381424
4547,2924.5789489746094
4548,2925.235949754715
4549,2925.892950296402
4550,2926.5559511184692
4551,2927.2139518260956
4552,2927.8729524612427
4553,2928.5299530029297
4554,2929.1819536685944
4555,2929.8349545001984
4556,2930.487955093384
4557,2931.14195561409
4558,2931.792956352234
4559,2932.4429569244385
4560,2933.0929577350616
4561,2933.743958234787
4562,2934.3979589939117
4563,2935.0499596595764
4564,2935.702960252762
4565,2936.3559608459473
4566,2937.009961605072
4567,2937.6599621772766
4568,2938.3109629154205
4569,2938.965963602066
4570,2939.625964164734
4571,2940.2829649448395
4572,2940.935965538025
4573,2941.591966152191
4574,2942.2469668388367
4575,2942.8999676704407
4576,2943.5519680976868
4577,2944.209968805313
4578,2944.863969564438
4579,2945.514970302582
4580,2946.167970895767
4581,2946.8239715099335
4582,2947.4779722690582
4583,2948.1309728622437
4584,2948.7819736003876
4585,2949.437974214554
4586,2950.094974756241
4587,2950.7519755363464
4588,2951.402976036072
4589,2952.052976846695
4590,2952.708977460861
4591,2953.368978023529
4592,2954.0269787311554
4593,2954.683979511261
4594,2955.3399801254272
4595,2956.002980709076
4596,2956.6609814167023
4597,2957.3209822177887
4598,2957.9789826869965
4599,2958.635983467102
4600,2959.2899839878082
4601,2959.9379847049713
4602,2960.576985359192
4603,2961.2234859466553
4604,2961.8699867725372
4605,2962.518987417221
4606,2963.154988050461
4607,2963.7889885902405
4608,2964.4209892749786
4609,2965.0559899806976
4610,2965.695990562439
4611,2966.3349912166595
4612,2966.9759917259216
4613,2967.620992422104
4614,2968.2729930877686
4615,2968.928993701935
4616,2969.5839943885803
4617,2970.238995075226
4618,2970.8959958553314
4619,2971.5519964694977
4620,2972.2039971351624
4621,2972.855997800827
4622,2973.5109984874725
4623,2974.1699991226196
4624,2974.825999736786
4625,2975.4800004959106
4626,2976.133001089096
4627,2976.787001848221
4628,2977.439002275467
4629,2978.092003107071
4630,2978.7430036067963
4631,2979.39200425148
4632,2980.0490050315857
4633,2980.7010056972504
4634,2981.354006290436
4635,2981.999006986618
4636,2982.6510076522827
4637,2983.304008245468
4638,2983.952008962631
4639,2984.6000096797943
4640,2985.249010324478
4641,2985.901010990143
4642,2986.5530116558075
4643,2987.2000122070312
4644,2987.849012851715
4645,2988.5020134449005
4646,2989.154014110565
4647,2989.805014848709
4648,2990.457015514374
4649,2991.1090161800385
4650,2991.7650167942047
4651,2992.4170174598694
4652,2993.0730180740356
4653,2993.7260189056396
4654,2994.3810193538666
4655,2995.0330200195312
4656,2995.684020757675
4657,2996.335021495819
4658,2996.9880220890045
4659,2997.6360228061676
4660,2998.2820234298706
4661,2998.925024032593
4662,2999.5690248012543
4663,3000.213025331497
4664,3000.8570261001587
4665,3001.5030267238617
4666,3002.154027223587
4667,3002.808027982712
4668,3003.4590287208557
4669,3004.1080293655396
4670,3004.761029958725
4671,3005.4170305728912
4672,3006.074031352997
4673,3006.7270319461823
4674,3007.379032611847
4675,3008.0340332984924
4676,3008.689033985138
4677,3009.3420345783234
4678,3009.995035171509
4679,3010.648035764694
4680,3011.300036430359
4681,3011.953037261963
4682,3012.6030378341675
4683,3013.2520384788513
4684,3013.901039123535
4685,3014.547039747238
4686,3015.1920404434204
4687,3015.834041118622
4688,3016.480041742325
4689,3017.1220424175262
4690,3017.7650430202484
4691,3018.40704369545
4692,3019.0560443401337
4693,3019.7020449638367
4694,3020.347045660019
4695,3020.990046262741
4696,3021.6370470523834
4697,3022.2830476760864
4698,3022.9270482063293
4699,3023.5720489025116
4700,3024.216049671173
4701,3024.865050315857
4702,3025.51105093956
4703,3026.157051563263
4704,3026.798052072525
4705,3027.4450528621674
4706,3028.0930535793304
4707,3028.7360541820526
4708,3029.379054784775
4709,3030.0260553359985
4710,3030.67005610466
4711,3031.313056707382
4712,3031.9580574035645
4713,3032.6030580997467
4714,3033.246058702469
4715,3033.887059211731
4716,3034.5290598869324
4717,3035.1740605831146
4718,3035.8230612277985
4719,3036.46306180954
4720,3037.1040625572205
4721,3037.744063138962
4722,3038.3880639076233
4723,3039.032064437866
4724,3039.6760652065277
4725,3040.316065788269
4726,3040.9550664424896
4727,3041.595067024231
4728,3042.229067802429
4729,3042.8640682697296
4730,3043.509068965912
4731,3044.157069683075
4732,3044.8090703487396
4733,3045.4580709934235
4734,3046.1030716896057
4735,3046.7490723133087
4736,3047.397073030472
4737,3048.0450735092163
4738,3048.6920742988586
4739,3049.3420748710632
4740,3049.9980754852295
4741,3050.6540760993958
4742,3051.3130769729614
4743,3051.9700775146484
4744,3052.630078315735
4745,3053.289078950882
4746,3053.94907951355
4747,3054.6030802726746
4748,3055.25608086586
4749,3055.9100816249847
4750,3056.56308221817
4751,3057.2140827178955
4752,3057.8590834140778
4753,3058.5050840377808
4754,3059.150084733963
4755,3059.7950854301453
4756,3060.4390861988068
4757,3061.0810866355896
4758,3061.727087497711
4759,3062.374088048935
4760,3063.020088672638
4761,3063.6670892238617
4762,3064.3130900859833
4763,3064.960090637207
4764,3065.60809135437
4765,3066.2530920505524
4766,3066.900092601776
4767,3067.547093153
4768,3068.198093891144
4769,3068.846094608307
4770,3069.4960951805115
4771,3070.1460959911346
4772,3070.7980964183807
4773,3071.4530971050262
4774,3072.110097885132
4775,3072.766098499298
4776,3073.4220991134644
4777,3074.07909989357
4778,3074.735100507736
4779,3075.387101173401
4780,3076.038101911545
4781,3076.6871025562286
4782,3077.3391032218933
4783,3077.987103700638
4784,3078.637104511261
4785,3079.2851049900055
4786,3079.9341056346893
4787,3080.580106496811
4788,3081.21310710907
4789,3081.8451075553894
4790,3082.504108428955
4791,3083.1601090431213
4792,3083.8221096992493
4793,3084.485110282898
4794,3085.1421110630035
4795,3085.792111635208
4796,3086.444112300873
4797,3087.092113018036
4798,3087.746113538742
4799,3088.4031143188477
4800,3089.0621149539948
4801,3089.721115589142
4802,3090.3871161937714
4803,3091.055116891861
4804,3091.7201175689697
4805,3092.3851182460785
4806,3093.0471189022064
4807,3093.7161195278168
4808,3094.3811202049255
4809,3095.0421209335327
4810,3095.7071216106415
4811,3096.3691222667694
4812,3097.034122943878
4813,3097.696123600006
4814,3098.3571243286133
4815,3099.0151250362396
4816,3099.669125556946
4817,3100.3201262950897
4818,3100.9851269721985
4819,3101.643127679825
4820,3102.3031282424927
4821,3102.953129053116
4822,3103.5981295108795
4823,3104.2491302490234
4824,3104.903131008148
4825,3105.5541315078735
4826,3106.2051322460175
4827,3106.857132911682
4828,3107.514133453369
4829,3108.176134109497
4830,3108.8351349830627
4831,3109.4951355457306
4832,3110.1561362743378
4833,3110.825136899948
4834,3111.50013756752
4835,3112.17013835907
4836,3112.8411388397217
4837,3113.5091395378113
4838,3114.1831402778625
4839,3114.8581409454346
4840,3115.529141664505
4841,3116.191142320633
4842,3116.8561429977417
4843,3117.5181436538696
4844,3118.176144361496
4845,3118.82514500618
4846,3119.4961457252502
4847,3120.16414642334
4848,3120.834146976471
4849,3121.5051476955414
4850,3122.1741483211517
4851,3122.8381490707397
4852,3123.50514960289
4853,3124.1761503219604
4854,3124.845150947571
4855,3125.5161516666412
4856,3126.1891524791718
4857,3126.8621530532837
4858,3127.5351536273956
4859,3128.2101545333862
4860,3128.8871550559998
4861,3129.5671558380127
4862,3130.252156496048
4863,3130.9331572055817
4864,3131.6091578006744
4865,3132.285158634186
4866,3132.9581592082977
4867,3133.6261599063873
4868,3134.292160511017
4869,3134.9581611156464
4870,3135.6221618652344
4871,3136.290162563324
4872,3136.9551632404327
4873,3137.6201639175415
4874,3138.28316450119
4875,3138.9421651363373
4876,3139.6051659584045
4877,3140.2701666355133
4878,3140.9291672706604
4879,3141.584167957306
4880,3142.243168592453
4881,3142.90416932106
4882,3143.57217001915
4883,3144.2321705818176
4884,3144.8921711444855
4885,3145.5551719665527
4886,3146.2281725406647
4887,3146.8931732177734
4888,3147.5571739673615
4889,3148.22017455101
4890,3148.89017534256
4891,3149.5581760406494
4892,3150.226176738739
4893,3150.8931772708893
4894,3151.560178041458
4895,3152.2271785736084
4896,3152.9011793136597
4897,3153.57218003273
4898,3154.248180627823
4899,3154.927181482315
4900,3155.614181995392
4901,3156.2981827259064
4902,3156.9831833839417
4903,3157.6741840839386
4904,3158.366184949875
4905,3159.0461854934692
4906,3159.7231862545013
4907,3160.3961868286133
4908,3161.0601875782013
4909,3161.7191882133484
4910,3162.3751888275146
4911,3163.0281894207
4912,3163.6831901073456
4913,3164.343190908432
4914,3165.0091915130615
4915,3165.682192325592
4916,3166.358192920685
4917,3167.038193464279
4918,3167.7091941833496
4919,3168.38219499588
4920,3169.056195497513
4921,3169.7271962165833
4922,3170.394196987152
4923,3171.0611975193024
4924,3171.7251982688904
4925,3172.3921990394592
4926,3173.060199737549
4927,3173.7232003211975
4928,3174.3852009773254
4929,3175.043201684952
4930,3175.704202413559
4931,3176.3812029361725
4932,3177.0582036972046
4933,3177.732204437256
4934,3178.4002051353455
4935,3179.065205812454
4936,3179.728206396103
4937,3180.38920712471
4938,3181.051207780838
4939,3181.7122082710266
4940,3182.373208999634
4941,3183.037209749222
4942,3183.7032103538513
4943,3184.382210969925
4944,3185.0652117729187
4945,3185.7462124824524
4946,3186.425213098526
4947,3187.10821390152
4948,3187.7982144355774
4949,3188.4902153015137
4950,3189.1812160015106
4951,3189.8652164936066
4952,3190.5472173690796
4953,3191.227217912674
4954,3191.904218673706
4955,3192.5782194137573
4956,3193.2512199878693
4957,3193.919220685959
4958,3194.588221311569
4959,3195.258222103119
4960,3195.931222677231
4961,3196.6042234897614
4962,3197.2792241573334
4963,3197.9482247829437
4964,3198.622225522995
4965,3199.2992260456085
4966,3199.981226682663
4967,3200.661227464676
4968,3201.3372280597687
4969,3202.0122287273407
4970,3202.683229446411
4971,3203.353230237961
4972,3204.025230884552
4973,3204.6942315101624
4974,3205.359232187271
4975,3206.0172328948975
4976,3206.667233467102
4977,3207.334234237671
4978,3208.019234895706
4979,3208.694235563278
4980,3209.373236179352
4981,3210.0532369613647
4982,3210.727237701416
4983,3211.399238348007
4984,3212.0652389526367
4985,3212.736239671707
4986,3213.4082403182983
4987,3214.0822410583496
4988,3214.7582416534424
4989,3215.4332423210144
4990,3216.115242958069
4991,3216.8002438545227
4992,3217.488244533539
4993,3218.173245191574
4994,3218.85924577713
4995,3219.5492465496063
4996,3220.233247280121
4997,3220.9142479896545
4998,3221.591248512268
4999,3222.26624917984
5000,3222.9392499923706
5001,3223.606250524521
5002,3224.2732512950897
5003,3224.9372520446777
5004,3225.6022527217865
5005,3226.268253326416
5006,3226.933254003525
5007,3227.597254753113
5008,3228.261255264282
5009,3228.92325592041
5010,3229.5952565670013
5011,3230.268257379532
5012,3230.938257932663
5013,3231.6032586097717
5014,3232.266259431839
5015,3232.926259994507
5016,3233.590260744095
5017,3234.2552614212036
5018,3234.919261932373
5019,3235.583262681961
5020,3236.2442634105682
5021,3236.9032640457153
5022,3237.568264722824
5023,3238.238265275955
5024,3238.908266067505
5025,3239.5842666625977
5026,3240.258267402649
5027,3240.9372680187225
5028,3241.6162688732147
5029,3242.2942695617676
5030,3242.963270187378
5031,3243.630270719528
5032,3244.2962715625763
5033,3244.9652721881866
5034,3245.631272792816
5035,3246.296273469925
5036,3246.9562742710114
5037,3247.620274782181
5038,3248.281275510788
5039,3248.9442760944366
5040,3249.6102769374847
5041,3250.2762775421143
5042,3250.942278146744
5043,3251.6092789173126
5044,3252.2852795124054
5045,3252.9622802734375
5046,3253.6402809619904
5047,3254.316281557083
5048,3254.991282224655
5049,3255.6682829856873
5050,3256.3352835178375
5051,3256.9962842464447
5052,3257.646285057068
5053,3258.2952857017517
5054,3258.9452862739563
5055,3259.6032869815826
5056,3260.269287586212
5057,3260.945288181305
5058,3261.6292889118195
5059,3262.313289642334
5060,3262.9952902793884
5061,3263.6692910194397
5062,3264.3322916030884
5063,3264.9802923202515
5064,3265.6282930374146
5065,3266.2692935466766
5066,3266.901294231415
5067,3267.52529501915
5068,3268.147295475006
5069,3268.7732961177826
5070,3269.420296907425
5071,3270.0842974185944
5072,3270.7612981796265
5073,3271.445298910141
5074,3272.139299631119
5075,3272.8413002490997
5076,3273.5493009090424
5077,3274.251301765442
5078,3274.9483025074005
5079,3275.6423029899597
5080,3276.329303741455
5081,3277.0163044929504
5082,3277.6903052330017
5083,3278.3633058071136
5084,3279.0333065986633
5085,3279.710307121277
5086,3280.389307975769
5087,3281.0663084983826
5088,3281.7383091449738
5089,3282.4033098220825
5090,3283.071310520172
5091,3283.752311229706
5092,3284.4413120746613
5093,3285.132312774658
5094,3285.823313474655
5095,3286.514314174652
5096,3287.1943147182465
5097,3287.864315509796
5098,3288.522315979004
5099,3289.170316696167
5100,3289.8113174438477
5101,3290.4503180980682
5102,3291.0913186073303
5103,3291.735319375992
5104,3292.3883199691772
5105,3293.040320634842
5106,3293.70232129097
5107,3294.3553218841553
5108,3295.0263226032257
5109,3295.714323282242
5110,3296.3983240127563
5111,3297.094324827194
5112,3297.7953255176544
5113,3298.501326084137
5114,3299.205326795578
5115,3299.9023275375366
5116,3300.597328186035
5117,3301.2893290519714
5118,3301.992329597473
5119,3302.704330444336
5120,3303.411331176758
5121,3304.107331752777
5122,3304.8023324012756
5123,3305.5003333091736
5124,3306.206333875656
5125,3306.916334629059
5126,3307.617335319519
5127,3308.3153359889984
5128,3309.020336866379
5129,3309.7233374118805
5130,3310.4143381118774
5131,3311.095338821411
5132,3311.7693395614624
5133,3312.4363400936127
5134,3313.09934091568
5135,3313.7783415317535
5136,3314.4503421783447
5137,3315.1233429908752
5138,3315.796343564987
5139,3316.4703443050385
5140,3317.1433448791504
5141,3317.8153455257416
5142,3318.488346338272
5143,3319.1713469028473
5144,3319.857347726822
5145,3320.5463483333588
5146,3321.2373490333557
5147,3321.9303498268127
5148,3322.6253504753113
5149,3323.319351196289
5150,3324.0123517513275
5151,3324.6953525543213
5152,3325.3693532943726
5153,3326.046353816986
5154,3326.7143545150757
5155,3327.39835524559
5156,3328.0833559036255
