,ECG_peaks
0,0.0
1,0.7530045509338379
2,1.5040092468261719
3,2.2870137691497803
4,3.0840187072753906
5,3.882023572921753
6,4.643028020858765
7,5.378032445907593
8,6.090036869049072
9,6.787040948867798
10,7.513045310974121
11,8.277050018310547
12,9.037054538726807
13,9.795059204101562
14,10.557063817977905
15,11.339068412780762
16,12.12907338142395
17,12.940078258514404
18,13.766083240509033
19,14.589088201522827
20,15.434093236923218
21,16.2610981464386
22,17.080103158950806
23,17.863107919692993
24,18.64511251449585
25,19.404117107391357
26,20.157121658325195
27,20.92012643814087
28,21.70613121986389
29,22.49513578414917
30,23.314140796661377
31,24.140145778656006
32,24.938150644302368
33,25.7351553440094
34,26.509160041809082
35,27.278164863586426
36,28.037169456481934
37,28.805173873901367
38,29.581178665161133
39,30.35118341445923
40,31.123188018798828
41,31.88419246673584
42,32.62819695472717
43,33.32520127296448
44,34.03120541572571
45,34.72120976448059
46,35.40021371841431
47,36.09821796417236
48,36.823222398757935
49,37.5612268447876
50,38.3112313747406
51,39.06623601913452
52,39.79924035072327
53,40.499244689941406
54,41.19924879074097
55,41.898252964019775
56,42.615257263183594
57,43.35126185417175
58,44.08026623725891
59,44.82227063179016
60,45.58227515220642
61,46.36028003692627
62,47.087284326553345
63,47.88728928565979
64,48.64529371261597
65,49.40729832649231
66,50.153302907943726
67,50.89130735397339
68,51.64631199836731
69,52.41731643676758
70,53.17732119560242
71,53.93232560157776
72,54.660330057144165
73,55.348334312438965
74,56.023338317871094
75,56.693342447280884
76,57.39534664154053
77,58.117351055145264
78,58.8703556060791
79,59.584359884262085
80,60.2923641204834
81,61.074368715286255
82,61.865373611450195
83,62.692378520965576
84,63.53938364982605
85,64.39038872718811
86,65.22639393806458
87,66.05539894104004
88,66.87240386009216
89,67.70240879058838
90,68.53641390800476
91,69.3734188079834
92,70.2144238948822
93,71.055428981781
94,71.88843417167664
95,72.72943925857544
96,73.48744368553162
97,74.21644806861877
98,74.91745233535767
99,75.60345649719238
100,76.27646064758301
101,76.95146465301514
102,77.61346864700317
103,78.27347254753113
104,78.91947650909424
105,79.56348037719727
106,80.20848441123962
107,80.84248805046082
108,81.46282529830933
109,82.08316230773926
110,82.70349931716919
111,83.31250309944153
112,83.91250658035278
113,84.49751019477844
114,85.08051371574402
115,85.65951728820801
116,86.231520652771
117,86.79852414131165
118,87.36352753639221
119,87.92953085899353
120,88.51153445243835
121,89.11053800582886
122,89.70354175567627
123,90.28954529762268
124,90.88954877853394
125,91.51755261421204
126,92.16255640983582
127,92.82856059074402
128,93.47156429290771
129,94.10756826400757
130,94.79957246780396
131,95.65557765960693
132,96.45958232879639
133,97.2365870475769
134,97.9975917339325
135,98.72359609603882
136,99.39160013198853
137,100.03860402107239
138,100.67460799217224
139,101.31661176681519
140,101.96561574935913
141,102.59661960601807
142,103.34762406349182
143,104.12962865829468
144,104.87463331222534
145,105.62863779067993
146,106.37764239311218
147,107.10964679718018
148,107.83265113830566
149,108.51065516471863
150,109.17065930366516
151,109.82666325569153
152,110.47366714477539
153,111.13867115974426
154,111.83967518806458
155,112.53567957878113
156,113.22068357467651
157,113.96268820762634
158,114.70369267463684
159,115.43669700622559
160,116.18070149421692
161,116.90870594978333
162,117.62771034240723
163,118.3327145576477
164,119.01171851158142
165,119.66972255706787
166,120.33772659301758
167,120.9947304725647
168,121.6537344455719
169,122.30173850059509
170,122.97374248504639
171,123.63974666595459
172,124.3007504940033
173,124.97375464439392
174,125.6407585144043
175,126.31676268577576
176,127.00376677513123
177,127.70277118682861
178,128.3987753391266
179,129.07677936553955
180,129.78978371620178
181,130.54078817367554
182,131.3497931957245
183,132.15879797935486
184,133.00380301475525
185,133.82980799674988
186,134.6118128299713
187,135.3878173828125
188,136.17382216453552
189,136.9788269996643
190,137.74783182144165
191,138.52683639526367
192,139.32884120941162
193,140.14784622192383
194,140.91985082626343
195,141.69985556602478
196,142.48886036872864
197,143.24586486816406
198,143.9968695640564
199,144.75887417793274
200,145.5278787612915
201,146.31888341903687
202,147.06688809394836
203,147.83889269828796
204,148.62789750099182
205,149.4129021167755
206,150.1849067211151
207,150.97291159629822
208,151.78491640090942
209,152.59592127799988
210,153.40592622756958
211,154.1499307155609
212,154.919935464859
213,155.70794010162354
214,156.51194500923157
215,157.35195016860962
216,158.16095495224
217,158.98095989227295
218,159.78596472740173
219,160.57796955108643
220,161.36597442626953
221,162.14697909355164
222,162.92598366737366
223,163.7039885520935
224,164.5179934501648
225,165.37299847602844
226,166.240003824234
227,167.1030089855194
228,167.9680142402649
229,168.81601929664612
230,169.6080241203308
231,170.39002871513367
232,171.16103339195251
233,171.9220380783081
234,172.71104288101196
235,173.5370478630066
236,174.33705258369446
237,175.16005754470825
238,175.97706246376038
239,176.73806715011597
240,177.51407194137573
241,178.28407645225525
242,179.08508133888245
243,179.8450858592987
244,180.65209078788757
245,181.47409582138062
246,182.32510089874268
247,183.14910578727722
248,183.94211053848267
249,184.76111555099487
250,185.5521204471588
251,186.34512519836426
252,187.13512992858887
253,187.91713452339172
254,188.7241394519806
255,189.56214451789856
256,190.38214945793152
257,191.2381546497345
258,192.10715985298157
259,192.96916508674622
260,193.8561704158783
261,194.75017595291138
262,195.62418127059937
263,196.48018622398376
264,197.28619122505188
265,198.09319615364075
266,198.8932008743286
267,199.67420554161072
268,200.46321034431458
269,201.27221536636353
270,202.05421996116638
271,202.84522485733032
272,203.61522936820984
273,204.4172341823578
274,205.27123951911926
275,206.11424446105957
276,206.9822497367859
277,207.7922546863556
278,208.64825987815857
279,209.4832649230957
280,210.2882697582245
281,211.11727476119995
282,211.968279838562
283,212.79728484153748
284,213.6542899608612
285,214.51629519462585
286,215.36230039596558
287,216.18430519104004
288,217.01931023597717
289,217.8633153438568
290,218.71332049369812
291,219.5653257369995
292,220.43533086776733
293,221.26933598518372
294,222.13334131240845
295,222.9773464202881
296,223.79335117340088
297,224.6123561859131
298,225.4493613243103
299,226.27336621284485
300,227.12337136268616
301,227.99937653541565
302,228.84538173675537
303,229.70338702201843
304,230.58039212226868
305,231.42939734458923
306,232.29340267181396
307,233.14440774917603
308,233.9914128780365
309,234.80241775512695
310,235.6084225177765
311,236.42942762374878
312,237.27343273162842
313,238.10643768310547
314,238.9764428138733
315,239.83444809913635
316,240.67045307159424
317,241.5374584197998
318,242.3804633617401
319,243.19646835327148
320,244.02747344970703
321,244.84047842025757
322,245.65848326683044
323,246.49248838424683
324,247.32249331474304
325,248.14549827575684
326,248.98250341415405
327,249.7935082912445
328,250.58251309394836
329,251.38651776313782
330,252.2025227546692
331,252.9995276927948
332,253.83553266525269
333,254.67953777313232
334,255.49154257774353
335,256.32454776763916
336,257.1345524787903
337,257.93455743789673
338,258.7525622844696
339,259.5485670566559
340,260.354572057724
341,261.16357684135437
342,261.9765818119049
343,262.77458667755127
344,263.5695912837982
345,264.363596200943
346,265.16360092163086
347,265.98660588264465
348,266.81661105155945
349,267.6646161079407
350,268.5416214466095
351,269.3626263141632
352,270.1996314525604
353,271.02563643455505
354,271.83564138412476
355,272.665646314621
356,273.4556510448456
357,274.248655796051
358,275.0226604938507
359,275.7656650543213
360,276.5646698474884
361,277.39367485046387
362,278.20367980003357
363,279.0446848869324
364,279.8746898174286
365,280.65969467163086
366,281.3926990032196
367,282.09670329093933
368,282.746707201004
369,283.42171120643616
370,284.09571528434753
371,284.8387198448181
372,285.63772463798523
373,286.4647295475006
374,287.3147346973419
375,288.1507399082184
376,288.9387445449829
377,289.72974944114685
378,290.539754152298
379,291.37575936317444
380,292.2287645339966
381,293.0767695903778
382,293.9147746562958
383,294.7357795238495
384,295.5417845249176
385,296.31878900527954
386,297.0407934188843
387,297.8097982406616
388,298.63580322265625
389,299.60280895233154
390,300.4598140716553
391,301.18481850624084
392,302.109824180603
393,302.91782903671265
394,303.63183331489563
395,304.4968385696411
396,305.24084305763245
397,305.92584705352783
398,306.7468521595001
399,307.4518563747406
400,308.143860578537
401,308.8968651294708
402,309.6348695755005
403,310.30787348747253
404,310.96487760543823
405,311.68188190460205
406,312.4308865070343
407,313.20189094543457
408,313.99789595603943
409,314.7009000778198
410,315.3729040622711
411,316.08590841293335
412,316.7929127216339
413,317.526917219162
414,318.2729215621948
415,318.94392561912537
416,319.60992980003357
417,320.29693388938904
418,320.96893787384033
419,321.6629421710968
420,322.3729465007782
421,323.0299503803253
422,323.6839542388916
423,324.37495851516724
424,325.0749628543854
425,325.82896733283997
426,326.57397174835205
427,327.251975774765
428,327.9259798526764
429,328.6319842338562
430,329.3399884700775
431,330.0649929046631
432,330.77199721336365
433,331.45100116729736
434,332.15200543403625
435,332.9080100059509
436,333.68501472473145
437,334.53501987457275
438,335.3640248775482
439,336.13702964782715
440,336.8840341567993
441,337.6620388031006
442,338.46704363822937
443,339.34304881095886
444,340.2050540447235
445,340.9900588989258
446,341.74406337738037
447,342.5020680427551
448,343.3250730037689
449,344.21107816696167
450,345.07408356666565
451,345.90408849716187
452,346.7440936565399
453,347.6090989112854
454,348.5171043872833
455,349.4171097278595
456,350.2621147632599
457,351.0761196613312
458,351.93012499809265
459,352.82913041114807
460,353.7721359729767
461,354.66114139556885
462,355.496146440506
463,356.3401515483856
464,357.2161567211151
465,358.12416219711304
466,359.0421679019928
467,359.8811728954315
468,360.710177898407
469,361.58418321609497
470,362.46218848228455
471,363.33019375801086
472,364.14019870758057
473,364.94920349121094
474,365.71320819854736
475,366.4752128124237
476,367.20121717453003
477,367.9012212753296
478,368.6152255535126
479,369.33822989463806
480,370.1022346019745
481,370.9652397632599
482,371.87424540519714
483,372.7942509651184
484,373.708256483078
485,374.6222620010376
486,375.52826738357544
487,376.45127296447754
488,377.3602783679962
489,378.2742838859558
490,379.19628953933716
491,380.0782947540283
492,380.99130034446716
493,381.9413061141968
494,382.91531205177307
495,383.9013178348541
496,384.89332389831543
497,385.8333296775818
498,386.73533511161804
499,387.66234064102173
500,388.564346075058
501,389.48035168647766
502,390.4733576774597
503,391.4273633956909
504,392.36436891555786
505,393.330374956131
506,394.26538038253784
507,395.18638610839844
508,396.1413917541504
509,397.11039757728577
510,398.06840348243713
511,399.04740929603577
512,400.0104150772095
513,400.9614210128784
514,401.9254267215729
515,402.8934326171875
516,403.8424382209778
517,404.73644375801086
518,405.6574492454529
519,406.5874547958374
520,407.537460565567
521,408.52146649360657
522,409.47047233581543
523,410.31847739219666
524,411.1784825325012
525,412.05348777770996
526,412.9844934940338
527,413.9354991912842
528,414.90450501441956
529,415.88251090049744
530,416.7825164794922
531,417.59752130508423
532,418.37952613830566
533,419.105530500412
534,419.90953540802
535,420.74654030799866
536,421.6445457935333
537,422.60755157470703
538,423.56655740737915
539,424.5465633869171
540,425.4585688114166
541,426.2875738143921
542,427.1065788269043
543,427.93958377838135
544,428.78458881378174
545,429.66759419441223
546,430.60459995269775
547,431.50260519981384
548,432.33961033821106
549,433.1706154346466
550,434.0396206378937
551,434.9326260089874
552,435.8526315689087
553,436.7576370239258
554,437.6276423931122
555,438.44764733314514
556,439.2966523170471
557,440.1376574039459
558,440.9716625213623
559,441.81966757774353
560,442.69867300987244
561,443.5436780452728
562,444.38468313217163
563,445.22868824005127
564,446.0586931705475
565,446.87069821357727
566,447.66870284080505
567,448.50270795822144
568,449.35271310806274
569,450.1767179965973
570,450.98572301864624
571,451.8237280845642
572,452.6527330875397
573,453.5057382583618
574,454.3587431907654
575,455.1697483062744
576,455.93175292015076
577,456.69675731658936
578,457.44276189804077
579,458.2067666053772
580,458.97077107429504
581,459.779776096344
582,460.58678102493286
583,461.39378571510315
584,462.2107906341553
585,463.05379581451416
586,463.90080094337463
587,464.7208058834076
588,465.5348107814789
589,466.36581587791443
590,467.18482065200806
591,468.0028257369995
592,468.81983065605164
593,469.6528356075287
594,470.4698405265808
595,471.27884554862976
596,472.0808503627777
597,472.8398549556732
598,473.590859413147
599,474.3148636817932
600,475.10586857795715
601,475.982873916626
602,476.84287905693054
603,477.6778841018677
604,478.5398893356323
605,479.42989468574524
606,480.33090019226074
607,481.2239055633545
608,482.12591099739075
609,483.01991629600525
610,483.8779215812683
611,484.74592685699463
612,485.58093190193176
613,486.3829367160797
614,487.1769413948059
615,487.9909462928772
616,488.8339514732361
617,489.67195653915405
618,490.50896167755127
619,491.35796666145325
620,492.26797223091125
621,493.1279773712158
622,493.998982667923
623,494.8509876728058
624,495.7429931163788
625,496.6349985599518
626,497.4500033855438
627,498.26500844955444
628,499.07901334762573
629,499.89801836013794
630,500.73002338409424
631,501.60002851486206
632,502.45403361320496
633,503.3430390357971
634,504.2520444393158
635,505.1350498199463
636,506.02005529403687
637,506.9010605812073
638,507.74606561660767
639,508.58907079696655
640,509.43207573890686
641,510.28208088874817
642,511.1630861759186
643,512.010091304779
644,512.8320963382721
645,513.6561012268066
646,514.4831063747406
647,515.3321113586426
648,516.1571164131165
649,517.0011215209961
650,517.873126745224
651,518.7341320514679
652,519.603137254715
653,520.4711425304413
654,521.3551478385925
655,522.1831529140472
656,522.9791576862335
657,523.7631623744965
658,524.5491671562195
659,525.3291718959808
660,526.1171765327454
661,526.925181388855
662,527.7221863269806
663,528.5541913509369
664,529.3951964378357
665,530.2402014732361
666,531.076206445694
667,531.9082114696503
668,532.7352166175842
669,533.5472214221954
670,534.3852264881134
671,535.2352316379547
672,536.1082367897034
673,536.9812421798706
674,537.8762476444244
675,538.7642529010773
676,539.6672582626343
677,540.5002634525299
678,541.3342683315277
679,542.1772735118866
680,543.0252785682678
681,543.8552837371826
682,544.7142889499664
683,545.6072943210602
684,546.4462993144989
685,547.3033044338226
686,548.1603095531464
687,548.9973146915436
688,549.8223197460175
689,550.6733248233795
690,551.5823302268982
691,552.4873356819153
692,553.4103412628174
693,554.306346654892
694,555.1773519515991
695,556.0593574047089
696,556.9333627223969
697,557.7803676128387
698,558.6343729496002
699,559.493378162384
700,560.3403832912445
701,561.2033884525299
702,562.0733935832977
703,562.9923992156982
704,563.9304049015045
705,564.8224103450775
706,565.7354156970978
707,566.6564214229584
708,567.5044264793396
709,568.3614315986633
710,569.2294368743896
711,570.0994420051575
712,570.966447353363
713,571.8554527759552
714,572.7804582118988
715,573.6554636955261
716,574.527468919754
717,575.3414738178253
718,576.178478717804
719,577.0024838447571
720,577.804488658905
721,578.5234930515289
722,579.2814974784851
723,580.0805022716522
724,580.9555077552795
725,581.8565130233765
726,582.7665185928345
727,583.6865241527557
728,584.5675294399261
729,585.3975343704224
730,586.2405395507812
731,587.1025447845459
732,587.9835500717163
733,588.8775553703308
734,589.7515606880188
735,590.640566110611
736,591.5405714511871
737,592.4565770626068
738,593.3825826644897
739,594.3345885276794
740,595.2325937747955
741,596.1195991039276
742,597.0066046714783
743,597.9096100330353
744,598.8036153316498
745,599.7116208076477
746,600.6016261577606
747,601.4866316318512
748,602.3666369915009
749,603.2466423511505
750,604.0676472187042
751,604.9026522636414
752,605.7326571941376
753,606.5526621341705
754,607.3836672306061
755,608.2346723079681
756,609.0986776351929
757,609.9726829528809
758,610.8246879577637
759,611.651692867279
760,612.5036981105804
761,613.3567032814026
762,614.1687080860138
763,615.0097131729126
764,615.8647184371948
765,616.6847233772278
766,617.5157284736633
767,618.2977330684662
768,619.0597376823425
769,619.7517418861389
770,620.5107464790344
771,621.3557515144348
772,622.2827572822571
773,623.1677625179291
774,624.1127681732178
775,625.0517737865448
776,625.9417793750763
777,626.7857842445374
778,627.6377894878387
779,628.5057947635651
780,629.3968000411987
781,630.2728054523468
782,631.1738109588623
783,632.0868163108826
784,632.9718217849731
785,633.8788270950317
786,634.7918326854706
787,635.7158381938934
788,636.6028435230255
789,637.5208492279053
790,638.4408547878265
791,639.3458602428436
792,640.226865530014
793,641.1208708286285
794,642.0168762207031
795,642.8998816013336
796,643.7938871383667
797,644.6838924884796
798,645.5438976287842
799,646.4149029254913
800,647.2819080352783
801,648.1109130382538
802,648.9569182395935
803,649.8099234104156
804,650.6789286136627
805,651.526933670044
806,652.438939332962
807,653.357944726944
808,654.2409501075745
809,655.136955499649
810,656.0359609127045
811,656.9499664306641
812,657.8099715709686
813,658.6819770336151
814,659.5789823532104
815,660.472987651825
816,661.3429930210114
817,662.2059981822968
818,663.0990035533905
819,663.9960091114044
820,664.867014169693
821,665.7600197792053
822,666.6580250263214
823,667.5380303859711
824,668.4050357341766
825,669.297040939331
826,670.1880464553833
827,671.0670516490936
828,671.9400570392609
829,672.8390624523163
830,673.7290678024292
831,674.5830729007721
832,675.4520781040192
833,676.318083524704
834,677.1840887069702
835,678.0680940151215
836,678.9650993347168
837,679.8451046943665
838,680.7531101703644
839,681.685115814209
840,682.6021213531494
841,683.5361270904541
842,684.4071321487427
843,685.2761375904083
844,686.1111426353455
845,686.9661476612091
846,687.820152759552
847,688.6661579608917
848,689.516163110733
849,690.3951683044434
850,691.2501735687256
851,692.1111788749695
852,692.9881839752197
853,693.8171889781952
854,694.6271939277649
855,695.4361989498138
856,696.2742040157318
857,697.1552093029022
858,698.0542147159576
859,698.9262199401855
860,699.7742249965668
861,700.6442303657532
862,701.5252356529236
863,702.4262411594391
864,703.2922463417053
865,704.1742515563965
866,705.0722570419312
867,705.9762625694275
868,706.8592677116394
869,707.7062728404999
870,708.5782783031464
871,709.4702835083008
872,710.4002892971039
873,711.3062946796417
874,712.1792998313904
875,713.0693054199219
876,713.9663107395172
877,714.9033164978027
878,715.8353219032288
879,716.7153272628784
880,717.611332654953
881,718.5063381195068
882,719.4273436069489
883,720.3283491134644
884,721.2113544940948
885,722.1163599491119
886,723.0343654155731
887,724.0103714466095
888,724.9643771648407
889,725.8833825588226
890,726.8373885154724
891,727.8273944854736
892,728.8004002571106
893,729.7244057655334
894,730.5964112281799
895,731.4924166202545
896,732.409422159195
897,733.3524277210236
898,734.2704334259033
899,735.1464385986328
900,736.0664441585541
901,736.9934496879578
902,737.9374554157257
903,738.8584609031677
904,739.733466386795
905,740.616471529007
906,741.5024769306183
907,742.3924822807312
908,743.2474875450134
909,744.1144926548004
910,745.0024981498718
911,745.9005036354065
912,746.7995090484619
913,747.6875143051147
914,748.5845196247101
915,749.4865252971649
916,750.3745305538177
917,751.2475357055664
918,752.1215410232544
919,753.0005464553833
920,753.880551815033
921,754.7565569877625
922,755.6615624427795
923,756.54456782341
924,757.4435732364655
925,758.3515787124634
926,759.2625842094421
927,760.13458943367
928,761.0345950126648
929,761.9546005725861
930,762.8706059455872
931,763.7576112747192
932,764.6536166667938
933,765.5706222057343
934,766.4856278896332
935,767.373633146286
936,768.2586386203766
937,769.1716439723969
938,770.0336492061615
939,770.898654460907
940,771.7876598834991
941,772.6976652145386
942,773.5746705532074
943,774.4716761112213
944,775.3846814632416
945,776.2966871261597
946,777.1656923294067
947,778.0536975860596
948,778.9507031440735
949,779.8347084522247
950,780.7227137088776
951,781.5917189121246
952,782.4707243442535
953,783.335729598999
954,784.1597344875336
955,784.9967396259308
956,785.8337445259094
957,786.6607496738434
958,787.5067546367645
959,788.3747599124908
960,789.2347650527954
961,790.078770160675
962,790.9547755718231
963,791.842780828476
964,792.7337863445282
965,793.5877914428711
966,794.4557967185974
967,795.3188018798828
968,796.1648070812225
969,796.9898118972778
970,797.8448171615601
971,798.7178223133087
972,799.590827703476
973,800.4318327903748
974,801.3038380146027
975,802.1768434047699
976,803.0588486194611
977,803.9058537483215
978,804.7618589401245
979,805.62686419487
980,806.5048694610596
981,807.3648746013641
982,808.2318799495697
983,809.126885175705
984,810.013890504837
985,810.8808958530426
986,811.7169008255005
987,812.5779061317444
988,813.4549114704132
989,814.3259167671204
990,815.1689217090607
991,816.0459270477295
992,816.946932554245
993,817.8669381141663
994,818.7949435710907
995,819.6749489307404
996,820.5489542484283
997,821.4489595890045
998,822.372965335846
999,823.2839708328247
1000,824.221976518631
1001,825.1579821109772
1002,826.0449874401093
1003,826.9119925498962
1004,827.8019981384277
1005,828.7050034999847
1006,829.6000089645386
1007,830.4610140323639
1008,831.3470194339752
1009,832.2410247325897
1010,833.1620304584503
1011,834.0690357685089
1012,835.0000414848328
1013,835.9280471801758
1014,836.810052394867
1015,837.6630575656891
1016,838.5280628204346
1017,839.4000680446625
1018,840.2380731105804
1019,841.0730781555176
1020,841.9400832653046
1021,842.828088760376
1022,843.7330942153931
1023,844.5920994281769
1024,845.4351043701172
1025,846.2991096973419
1026,847.1781148910522
1027,848.0431201457977
1028,848.9031255245209
1029,849.7751307487488
1030,850.6551361083984
1031,851.5221412181854
1032,852.3921465873718
1033,853.2611517906189
1034,854.1361570358276
1035,855.0011622905731
1036,855.8501672744751
1037,856.7231726646423
1038,857.6191780567169
1039,858.542183637619
1040,859.4191889762878
1041,860.3151943683624
1042,861.2161998748779
1043,862.1532053947449
1044,863.0462107658386
1045,863.9102160930634
1046,864.7972214221954
1047,865.6912267208099
1048,866.6162323951721
1049,867.4802374839783
1050,868.3532428741455
1051,869.2172479629517
1052,870.0912532806396
1053,870.9622585773468
1054,871.8372638225555
1055,872.7312693595886
1056,873.6332747936249
1057,874.538280248642
1058,875.4102854728699
1059,876.3002908229828
1060,877.1982963085175
1061,878.0963017940521
1062,878.9623069763184
1063,879.8253121376038
1064,880.7143175601959
1065,881.6023228168488
1066,882.4613280296326
1067,883.3383333683014
1068,884.2303388118744
1069,885.1063439846039
1070,885.9713492393494
1071,886.8533544540405
1072,887.736359834671
1073,888.6003651618958
1074,889.4773705005646
1075,890.3553757667542
1076,891.2313809394836
1077,892.0883860588074
1078,892.9553914070129
1079,893.82439661026
1080,894.6694016456604
1081,895.536406993866
1082,896.4114122390747
1083,897.2964177131653
1084,898.1814229488373
1085,899.0774283409119
1086,899.9464335441589
1087,900.8174388408661
1088,901.6664440631866
1089,902.5264492034912
1090,903.3834543228149
1091,904.2324595451355
1092,905.0734646320343
1093,905.9444699287415
1094,906.8534753322601
1095,907.8234810829163
1096,908.7364866733551
1097,909.6514921188354
1098,910.5534975528717
1099,911.4615030288696
1100,912.3155083656311
1101,913.187513589859
1102,914.054518699646
1103,914.9305241107941
1104,915.7695291042328
1105,916.6085340976715
1106,917.4645392894745
1107,918.3465447425842
1108,919.1615495681763
1109,919.989554643631
1110,920.8265597820282
1111,921.6405646800995
1112,922.4335694313049
1113,923.2265741825104
1114,924.0185790061951
1115,924.8505840301514
1116,925.7255892753601
1117,926.5985944271088
1118,927.4445996284485
1119,928.3186049461365
1120,929.183610200882
1121,930.0416152477264
1122,930.8846204280853
1123,931.7436256408691
1124,932.615630865097
1125,933.4956362247467
1126,934.3486413955688
1127,935.2156465053558
1128,936.0986518859863
1129,936.9906573295593
1130,937.8236622810364
1131,938.6706674098969
1132,939.5016725063324
1133,940.3776776790619
1134,941.2706830501556
1135,942.1756885051727
1136,943.1056942939758
1137,944.0276997089386
1138,944.9577052593231
1139,945.8587107658386
1140,946.7657163143158
1141,947.6687216758728
1142,948.57572722435
1143,949.4707326889038
1144,950.3397378921509
1145,951.2407433986664
1146,952.1087484359741
1147,952.9127533435822
1148,953.6587579250336
1149,954.3817622661591
1150,955.1337668895721
1151,955.9817719459534
1152,956.8197770118713
1153,957.6587820053101
1154,958.4837870597839
1155,959.3747923374176
1156,960.2857978343964
1157,961.1868033409119
1158,962.1008088588715
1159,962.9568140506744
1160,963.8268191814423
1161,964.690824508667
1162,965.5658297538757
1163,966.4008347988129
1164,967.2388398647308
1165,968.0868449211121
1166,968.9638502597809
1167,969.8358554840088
1168,970.7298610210419
1169,971.6398663520813
1170,972.5008716583252
1171,973.377876996994
1172,974.2068819999695
1173,975.0478870868683
1174,975.9128923416138
1175,976.8458979129791
1176,977.7239031791687
1177,978.6629087924957
1178,979.6289145946503
1179,980.5329201221466
1180,981.4249255657196
1181,982.3039307594299
1182,983.1339359283447
1183,983.999941110611
1184,984.8859465122223
1185,985.7389516830444
1186,986.6389570236206
1187,987.5759627819061
1188,988.463968038559
1189,989.3759734630585
1190,990.2269787788391
1191,991.0969839096069
1192,991.9849894046783
1193,992.839994430542
1194,993.7269997596741
1195,994.5960049629211
1196,995.47501039505
1197,996.3060154914856
1198,997.1180202960968
1199,997.9210250377655
1200,998.7380299568176
1201,999.5950353145599
1202,1000.5090408325195
1203,1001.3720459938049
1204,1002.2850515842438
1205,1003.2280571460724
1206,1004.1590628623962
1207,1005.0760684013367
1208,1005.9870738983154
1209,1006.8970792293549
1210,1007.7940847873688
1211,1008.6920902729034
1212,1009.552095413208
1213,1010.4501008987427
1214,1011.3521063327789
1215,1012.2361116409302
1216,1013.1361169815063
1217,1014.0581226348877
1218,1014.9841282367706
1219,1015.9111337661743
1220,1016.7801389694214
1221,1017.629144191742
1222,1018.4991493225098
1223,1019.3861546516418
1224,1020.257159948349
1225,1021.1711654663086
1226,1022.1191711425781
1227,1023.0241765975952
1228,1023.9471821784973
1229,1024.8051874637604
1230,1025.6841926574707
1231,1026.5661981105804
1232,1027.4512033462524
1233,1028.3372087478638
1234,1029.257214307785
1235,1030.1552197933197
1236,1031.0852253437042
1237,1031.9822309017181
1238,1032.8462359905243
1239,1033.7722415924072
1240,1034.7122473716736
1241,1035.5922524929047
1242,1036.5032579898834
1243,1037.453263759613
1244,1038.3752694129944
1245,1039.2952749729156
1246,1040.1642801761627
1247,1041.0472855567932
1248,1041.9342908859253
1249,1042.8262963294983
1250,1043.730301618576
1251,1044.5833067893982
1252,1045.4673120975494
1253,1046.3413174152374
1254,1047.2473230361938
1255,1048.129328250885
1256,1049.0313336849213
1257,1049.9023389816284
1258,1050.7913444042206
1259,1051.6793496608734
1260,1052.5293548107147
1261,1053.3623597621918
1262,1054.2293651103973
1263,1055.107370376587
1264,1055.9443755149841
1265,1056.845380783081
1266,1057.7563862800598
1267,1058.609391450882
1268,1059.4753968715668
1269,1060.3824021816254
1270,1061.2544074058533
1271,1062.1484129428864
1272,1063.0014181137085
1273,1063.8104228973389
1274,1064.593427658081
1275,1065.3444321155548
1276,1066.1664371490479
1277,1067.0404424667358
1278,1067.958447933197
1279,1068.9004535675049
1280,1069.828459262848
1281,1070.746464729309
1282,1071.6364703178406
1283,1072.5414757728577
1284,1073.4794812202454
1285,1074.4024868011475
1286,1075.3724927902222
1287,1076.3394985198975
1288,1077.2615041732788
1289,1078.2125098705292
1290,1079.1015152931213
1291,1079.9135200977325
1292,1080.7165250778198
1293,1081.5435299873352
1294,1082.3595349788666
1295,1083.165539741516
1296,1084.0335450172424
1297,1085.004550933838
1298,1085.9855568408966
1299,1087.0015630722046
1300,1087.895568370819
1301,1088.736573457718
1302,1089.5475783348083
1303,1090.3845834732056
1304,1091.2735886573792
1305,1092.1975944042206
1306,1093.125599861145
1307,1094.040605545044
1308,1094.9246108531952
1309,1095.8076162338257
1310,1096.6716213226318
1311,1097.5356266498566
1312,1098.3866317272186
1313,1099.254637002945
1314,1100.087641954422
1315,1100.9396471977234
1316,1101.8166525363922
1317,1102.7066578865051
1318,1103.5826630592346
1319,1104.37566781044
1320,1105.1936728954315
1321,1105.979677438736
1322,1106.7236819267273
1323,1107.4536864757538
1324,1108.164690732956
1325,1108.8616950511932
1326,1109.5566990375519
1327,1110.251703262329
1328,1110.954707622528
1329,1111.6317117214203
1330,1112.328715801239
1331,1113.0327200889587
1332,1113.7567245960236
1333,1114.511729001999
1334,1115.2897336483002
1335,1116.0957386493683
1336,1116.9207437038422
1337,1117.7467486858368
1338,1118.5707535743713
1339,1119.3527584075928
1340,1120.1507630348206
1341,1120.9927682876587
1342,1121.9427738189697
1343,1122.9447798728943
1344,1123.9577860832214
1345,1124.894791841507
1346,1125.7537970542908
1347,1126.585802078247
1348,1127.3728067874908
1349,1128.1568114757538
1350,1129.0148165225983
1351,1129.8928220272064
1352,1130.7858273983002
1353,1131.657832622528
1354,1132.4588375091553
1355,1133.2628421783447
1356,1134.060847043991
1357,1134.8908522129059
1358,1135.7358572483063
1359,1136.5508620738983
1360,1137.3908672332764
1361,1138.2578723430634
1362,1139.1388778686523
1363,1140.0208830833435
1364,1140.887888431549
1365,1141.736893415451
1366,1142.5708985328674
1367,1143.4089035987854
1368,1144.2649087905884
1369,1145.153913974762
1370,1146.0319194793701
1371,1146.8819243907928
1372,1147.7289295196533
1373,1148.5609345436096
1374,1149.3619394302368
1375,1150.1729443073273
1376,1150.9789493083954
1377,1151.80495429039
1378,1152.6209590435028
1379,1153.4579641819
1380,1154.329969406128
1381,1155.1979746818542
1382,1156.0989801883698
1383,1156.9439852237701
1384,1157.8059904575348
1385,1158.6729958057404
1386,1159.528000831604
1387,1160.371006011963
1388,1161.1930108070374
1389,1162.0160157680511
1390,1162.8140206336975
1391,1163.5990254878998
1392,1164.3940303325653
1393,1165.2300353050232
1394,1166.0470402240753
1395,1166.9210455417633
1396,1167.812050819397
1397,1168.7430565357208
1398,1169.6350619792938
1399,1170.53306722641
1400,1171.4230725765228
1401,1172.2410776615143
1402,1173.0380823612213
1403,1173.7870869636536
1404,1174.4860911369324
1405,1175.2120954990387
1406,1175.9961001873016
1407,1176.7531049251556
1408,1177.5521097183228
1409,1178.3311142921448
1410,1179.0711188316345
1411,1179.817123413086
1412,1180.5541276931763
1413,1181.2771322727203
1414,1182.01313662529
1415,1182.7411410808563
1416,1183.4581453800201
1417,1184.1921498775482
1418,1184.8991539478302
1419,1185.6241583824158
1420,1186.3471627235413
1421,1187.04616689682
1422,1187.772171497345
1423,1188.468175649643
1424,1189.1571798324585
1425,1189.8611838817596
1426,1190.5701882839203
1427,1191.254192352295
1428,1191.9251964092255
1429,1192.585200548172
1430,1193.2282042503357
1431,1193.8642082214355
1432,1194.5052120685577
1433,1195.130215883255
1434,1195.7592196464539
1435,1196.3782234191895
1436,1197.0002272129059
1437,1197.6252307891846
1438,1198.249234676361
1439,1198.87823843956
1440,1199.522242307663
1441,1200.1612462997437
1442,1200.8032500743866
1443,1201.454253911972
1444,1202.0882577896118
1445,1202.7142615318298
1446,1203.3402652740479
1447,1203.9642691612244
1448,1204.5982730388641
1449,1205.2302768230438
1450,1205.8852808475494
1451,1206.5452847480774
1452,1207.2072887420654
1453,1207.8892929553986
1454,1208.5682969093323
1455,1209.2243008613586
1456,1209.8883049488068
1457,1210.5703089237213
1458,1211.2523131370544
1459,1211.9533174037933
1460,1212.6613216400146
1461,1213.3563258647919
1462,1214.031329870224
1463,1214.7073340415955
1464,1215.380338191986
1465,1216.0353419780731
1466,1216.7093460559845
1467,1217.4093503952026
1468,1218.1313545703888
1469,1218.8583590984344
1470,1219.594363451004
1471,1220.331367969513
1472,1221.0503723621368
1473,1221.8203768730164
1474,1222.5773816108704
1475,1223.3073859214783
1476,1224.0503904819489
1477,1224.79039478302
1478,1225.524399280548
1479,1226.2514038085938
1480,1226.970407962799
1481,1227.7014124393463
1482,1228.434416770935
1483,1229.1854214668274
1484,1229.8904256820679
1485,1230.585429906845
1486,1231.2824339866638
1487,1231.9834382534027
1488,1232.675442457199
1489,1233.425446987152
1490,1234.1944515705109
1491,1234.9744563102722
1492,1235.7774612903595
1493,1236.617466211319
1494,1237.4254710674286
1495,1238.2154760360718
1496,1239.0164806842804
1497,1239.818485736847
1498,1240.6064903736115
1499,1241.4104952812195
1500,1242.2025001049042
1501,1242.9885046482086
1502,1243.791509628296
1503,1244.574514389038
1504,1245.3875193595886
1505,1246.2475244998932
1506,1247.1135296821594
1507,1248.0125350952148
1508,1248.8645403385162
1509,1249.732545375824
1510,1250.577550649643
1511,1251.3965554237366
1512,1252.2445607185364
1513,1253.0625655651093
1514,1253.9255707263947
1515,1254.7735760211945
1516,1255.6305811405182
1517,1256.4955863952637
1518,1257.3065912723541
1519,1258.1095960140228
1520,1258.890600681305
1521,1259.7116057872772
1522,1260.545610666275
1523,1261.4576163291931
1524,1262.3536217212677
1525,1263.2496271133423
1526,1264.1356325149536
1527,1265.0046377182007
1528,1265.8966431617737
1529,1266.7716484069824
1530,1267.6326534748077
1531,1268.4846587181091
1532,1269.304663658142
1533,1270.1646687984467
1534,1271.0496742725372
1535,1271.9336795806885
1536,1272.8416850566864
1537,1273.6816899776459
1538,1274.5136950016022
1539,1275.2926998138428
1540,1276.0567045211792
1541,1276.8897094726562
1542,1277.6907143592834
1543,1278.4777190685272
1544,1279.2247235774994
1545,1279.960727930069
1546,1280.751732826233
1547,1281.5107374191284
1548,1282.2527418136597
1549,1282.9957463741302
1550,1283.7037506103516
1551,1284.3967547416687
1552,1285.1287591457367
1553,1285.8837637901306
1554,1286.6307682991028
1555,1287.4457731246948
1556,1288.2367780208588
1557,1289.05078291893
1558,1289.8667879104614
1559,1290.6837928295135
1560,1291.4437973499298
1561,1292.1768016815186
1562,1292.8908059597015
1563,1293.6298105716705
1564,1294.3678150177002
1565,1295.1328196525574
1566,1295.9638245105743
1567,1296.814829826355
1568,1297.6538348197937
1569,1298.5298399925232
1570,1299.3928453922272
1571,1300.249850511551
1572,1301.1258556842804
1573,1301.9668607711792
1574,1302.8198659420013
1575,1303.6408710479736
1576,1304.5158762931824
1577,1305.377881526947
1578,1306.2458868026733
1579,1307.116891860962
1580,1307.9808971881866
1581,1308.8709025382996
1582,1309.6909074783325
1583,1310.4749121665955
1584,1311.251916885376
1585,1311.9979214668274
1586,1312.7769260406494
1587,1313.6049311161041
1588,1314.429936170578
1589,1315.31494140625
1590,1316.1989467144012
1591,1317.0679519176483
1592,1317.9439573287964
1593,1318.785962343216
1594,1319.6169674396515
1595,1320.373971939087
1596,1321.136976480484
1597,1321.9559814929962
1598,1322.7689864635468
1599,1323.6459918022156
1600,1324.5259971618652
1601,1325.4310026168823
1602,1326.3260078430176
1603,1327.2160131931305
1604,1328.104018688202
1605,1328.9650237560272
1606,1329.813029050827
1607,1330.6140336990356
1608,1331.419038772583
1609,1332.1760432720184
1610,1332.9360477924347
1611,1333.7070524692535
1612,1334.5600576400757
1613,1335.3540623188019
1614,1336.176067352295
1615,1337.0040724277496
1616,1337.7930772304535
1617,1338.622082233429
1618,1339.4230868816376
1619,1340.2380919456482
1620,1341.066097021103
1621,1341.8511016368866
1622,1342.6721065044403
1623,1343.495111465454
1624,1344.320116519928
1625,1345.1981217861176
1626,1346.068127155304
1627,1346.9771325588226
1628,1347.894138097763
1629,1348.7691433429718
1630,1349.6391487121582
1631,1350.4551537036896
1632,1351.2371582984924
1633,1351.9791626930237
1634,1352.7371673583984
1635,1353.4771718978882
1636,1354.2831766605377
1637,1355.2271823883057
1638,1356.1371879577637
1639,1357.0921936035156
1640,1358.0311994552612
1641,1358.9522049427032
1642,1359.879210472107
1643,1360.7872159481049
1644,1361.741221666336
1645,1362.649227142334
1646,1363.557232618332
1647,1364.4772381782532
1648,1365.372243642807
1649,1366.19224858284
1650,1366.9172530174255
1651,1367.6602575778961
1652,1368.5352628231049
1653,1369.4912686347961
1654,1370.5302748680115
1655,1371.5042808055878
1656,1372.492286682129
1657,1373.501292705536
1658,1374.4532985687256
1659,1375.3553040027618
1660,1376.2633094787598
1661,1377.1753149032593
1662,1378.0693204402924
1663,1378.9853258132935
1664,1379.8663311004639
1665,1380.7653365135193
1666,1381.647341966629
1667,1382.5483474731445
1668,1383.4023525714874
1669,1384.2413575649261
1670,1385.0703625679016
1671,1385.8423671722412
1672,1386.667372226715
1673,1387.5073773860931
1674,1388.307382106781
1675,1389.1533873081207
1676,1390.0313925743103
1677,1390.8833975791931
1678,1391.7634029388428
1679,1392.616408109665
1680,1393.474413394928
1681,1394.3274185657501
1682,1395.1894237995148
1683,1396.0184288024902
1684,1396.8454337120056
1685,1397.692438840866
1686,1398.5164437294006
1687,1399.352448940277
1688,1400.1594536304474
1689,1401.005458831787
1690,1401.8274638652802
1691,1402.6674687862396
1692,1403.4844737052917
1693,1404.2634785175323
1694,1405.0384831428528
1695,1405.762487411499
1696,1406.5214920043945
1697,1407.3444969654083
1698,1408.141501903534
1699,1408.976506948471
1700,1409.8045120239258
1701,1410.636517047882
1702,1411.4455218315125
1703,1412.2495267391205
1704,1413.0525314807892
1705,1413.8095362186432
1706,1414.6155409812927
1707,1415.4715461730957
1708,1416.3155512809753
1709,1417.1835565567017
1710,1418.062561750412
1711,1418.97456741333
1712,1419.8525726795197
1713,1420.6965777873993
1714,1421.5035824775696
1715,1422.2705872058868
1716,1423.0775921344757
1717,1423.9145970344543
1718,1424.7466020584106
1719,1425.5946073532104
1720,1426.4466123580933
1721,1427.2986176013947
1722,1428.1266224384308
1723,1428.929627418518
1724,1429.711632013321
1725,1430.4376366138458
1726,1431.1526408195496
1727,1431.8716452121735
1728,1432.5776493549347
1729,1433.2786536216736
1730,1434.0866584777832
1731,1434.9566638469696
1732,1435.8346691131592
1733,1436.7556746006012
1734,1437.6416800022125
1735,1438.506685256958
1736,1439.3776905536652
1737,1440.2566957473755
1738,1441.1337010860443
1739,1442.0397064685822
1740,1442.9407119750977
1741,1443.842717409134
1742,1444.7457230091095
1743,1445.5817279815674
1744,1446.4047329425812
1745,1447.2477378845215
1746,1448.148743391037
1747,1449.0377488136292
1748,1449.948754310608
1749,1450.8237595558167
1750,1451.6797647476196
1751,1452.549770116806
1752,1453.4017751216888
1753,1454.2797803878784
1754,1455.1407856941223
1755,1455.995790719986
1756,1456.8837962150574
1757,1457.7488014698029
1758,1458.6108067035675
1759,1459.4748117923737
1760,1460.319816827774
1761,1461.1788220405579
1762,1462.013827085495
1763,1462.8738324642181
1764,1463.7128374576569
1765,1464.576842546463
1766,1465.4308478832245
1767,1466.2958528995514
1768,1467.146858215332
1769,1467.964863061905
1770,1468.7838680744171
1771,1469.5618727207184
1772,1470.3988778591156
1773,1471.202882528305
1774,1471.9898874759674
1775,1472.8208923339844
1776,1473.635897397995
1777,1474.4599022865295
1778,1475.2959072589874
1779,1476.1019122600555
1780,1476.9249172210693
1781,1477.768922328949
1782,1478.5809271335602
1783,1479.4159321784973
1784,1480.1889369487762
1785,1480.9749417304993
1786,1481.7489461898804
1787,1482.5059509277344
1788,1483.275955438614
1789,1484.0209600925446
1790,1484.8079648017883
1791,1485.617969751358
1792,1486.4599747657776
1793,1487.3139798641205
1794,1488.1419849395752
1795,1488.982990026474
1796,1489.7859947681427
1797,1490.5749995708466
1798,1491.332004070282
1799,1492.082008600235
1800,1492.886013507843
1801,1493.6790182590485
1802,1494.4570231437683
1803,1495.244027853012
1804,1496.08003282547
1805,1496.871037721634
1806,1497.580041885376
1807,1498.3330464363098
1808,1499.168051481247
1809,1499.9640562534332
1810,1500.7770612239838
1811,1501.60906624794
1812,1502.4680714607239
1813,1503.2950763702393
1814,1504.1030812263489
1815,1504.8850860595703
1816,1505.636090517044
1817,1506.4360954761505
1818,1507.2841005325317
1819,1508.1041054725647
1820,1508.9241104125977
1821,1509.7761154174805
1822,1510.6081204414368
1823,1511.4601256847382
1824,1512.319130897522
1825,1513.1311357021332
1826,1513.920140504837
1827,1514.6981451511383
1828,1515.5231502056122
1829,1516.3091549873352
1830,1517.0741596221924
1831,1517.848164319992
1832,1518.609168767929
1833,1519.4081735610962
1834,1520.2171785831451
1835,1521.0281834602356
1836,1521.8821885585785
1837,1522.7211937904358
1838,1523.517198562622
1839,1524.2732031345367
1840,1525.0482077598572
1841,1525.8392124176025
1842,1526.6142172813416
1843,1527.4452221393585
1844,1528.2352268695831
1845,1529.0012316703796
1846,1529.815236568451
1847,1530.6422414779663
1848,1531.4332463741302
1849,1532.197250843048
1850,1532.9462554454803
1851,1533.6702597141266
1852,1534.3772640228271
1853,1535.1542687416077
1854,1535.9712736606598
1855,1536.821278810501
1856,1537.6812839508057
1857,1538.4982888698578
1858,1539.3312940597534
1859,1540.1432988643646
1860,1540.889303445816
1861,1541.6513080596924
1862,1542.4203126430511
1863,1543.18931722641
1864,1543.9603219032288
1865,1544.7243266105652
1866,1545.5103313922882
1867,1546.2503356933594
1868,1547.024340391159
1869,1547.8063452243805
1870,1548.6193499565125
1871,1549.4403550624847
1872,1550.2673599720001
1873,1551.0013644695282
1874,1551.731368780136
1875,1552.4363729953766
1876,1553.133377313614
1877,1553.8563816547394
1878,1554.6043860912323
1879,1555.3393905162811
1880,1556.0703949928284
1881,1556.842399597168
1882,1557.6434044837952
1883,1558.489409685135
1884,1559.3074145317078
1885,1560.015418767929
1886,1560.6834228038788
1887,1561.4294273853302
1888,1562.3374328613281
1889,1563.1994380950928
1890,1564.0454432964325
1891,1564.8664481639862
1892,1565.7764537334442
1893,1566.7284593582153
1894,1567.6644649505615
1895,1568.581470489502
1896,1569.4844760894775
1897,1570.4034814834595
1898,1571.32248711586
1899,1572.212492465973
1900,1573.122498035431
1901,1573.975503206253
1902,1574.8015081882477
1903,1575.6355130672455
1904,1576.446517944336
1905,1577.2695231437683
1906,1578.108528137207
1907,1578.9355330467224
1908,1579.7315378189087
1909,1580.5145425796509
1910,1581.3145475387573
1911,1582.115552186966
1912,1582.921557188034
1913,1583.7135620117188
1914,1584.4835665225983
1915,1585.2455711364746
1916,1585.9955756664276
1917,1586.7425801753998
1918,1587.4975848197937
1919,1588.2715895175934
1920,1589.0885944366455
1921,1589.8975992202759
1922,1590.6486039161682
1923,1591.3616080284119
1924,1592.0686123371124
1925,1592.8286168575287
1926,1593.6386218070984
1927,1594.5076270103455
1928,1595.351632118225
1929,1596.2086374759674
1930,1597.084642648697
1931,1597.9656479358673
1932,1598.827653169632
1933,1599.698658466339
1934,1600.5796637535095
1935,1601.4716691970825
1936,1602.3756747245789
1937,1603.3016800880432
1938,1604.212685585022
1939,1605.1076910495758
1940,1606.014696598053
1941,1606.9137020111084
1942,1607.8057074546814
1943,1608.7097127437592
1944,1609.5997183322906
1945,1610.501723766327
1946,1611.3987290859222
1947,1612.314734697342
1948,1613.2027399539948
1949,1614.122745513916
1950,1615.0237510204315
1951,1615.8957562446594
1952,1616.7827615737915
1953,1617.6857669353485
1954,1618.5297720432281
1955,1619.4047775268555
1956,1620.282782793045
1957,1621.1267879009247
1958,1621.969792842865
1959,1622.8237981796265
1960,1623.6628031730652
1961,1624.5028080940247
1962,1625.3828134536743
1963,1626.280818939209
1964,1627.1608242988586
1965,1628.0948297977448
1966,1629.0358355045319
1967,1629.9568412303925
1968,1630.902846813202
1969,1631.8528525829315
1970,1632.7448580265045
1971,1633.6328632831573
1972,1634.5218687057495
1973,1635.3578736782074
1974,1636.2278790473938
1975,1637.1398844718933
1976,1638.0288898944855
1977,1638.9798955917358
1978,1639.933901309967
1979,1640.8519070148468
1980,1641.7529122829437
1981,1642.5989174842834
1982,1643.4519226551056
1983,1644.314927816391
1984,1645.1669330596924
1985,1646.0499382019043
1986,1646.8879432678223
1987,1647.7659487724304
1988,1648.6639540195465
1989,1649.5389592647552
1990,1650.43696475029
1991,1651.312970161438
1992,1652.1469750404358
1993,1652.9939801692963
1994,1653.803985118866
1995,1654.6359901428223
1996,1655.4969954490662
1997,1656.416000843048
1998,1657.3410065174103
1999,1658.2130117416382
2000,1659.0970170497894
2001,1659.998022556305
2002,1660.8760278224945
2003,1661.7650332450867
2004,1662.6680386066437
2005,1663.53604388237
2006,1664.3950490951538
2007,1665.2620542049408
2008,1666.1570596694946
2009,1667.0340650081635
2010,1667.928070306778
2011,1668.8280758857727
2012,1669.723081111908
2013,1670.5770864486694
2014,1671.4410915374756
2015,1672.3070967197418
2016,1673.1481018066406
2017,1674.0191071033478
2018,1674.9021124839783
2019,1675.7351174354553
2020,1676.581122636795
2021,1677.4401278495789
2022,1678.2971329689026
2023,1679.131138086319
2024,1679.9861431121826
2025,1680.822148323059
2026,1681.6561532020569
2027,1682.493158340454
2028,1683.3331634998322
2029,1684.198168516159
2030,1685.093173980713
2031,1685.9911794662476
2032,1686.8651847839355
2033,1687.777190208435
2034,1688.6911957263947
2035,1689.559201002121
2036,1690.4292061328888
2037,1691.2882113456726
2038,1692.1552166938782
2039,1693.0412220954895
2040,1693.930227279663
2041,1694.8462328910828
2042,1695.7252383232117
2043,1696.604243516922
2044,1697.483248949051
2045,1698.3062539100647
2046,1699.1442589759827
2047,1699.9912638664246
2048,1700.8782694339752
2049,1701.7332744598389
2050,1702.6142797470093
2051,1703.4792850017548
2052,1704.3512902259827
2053,1705.253295660019
2054,1706.127300977707
2055,1707.0113062858582
2056,1707.8713116645813
2057,1708.721316576004
2058,1709.5893218517303
2059,1710.43532705307
2060,1711.2883322238922
2061,1712.147337436676
2062,1712.9973425865173
2063,1713.8023474216461
2064,1714.6113522052765
2065,1715.3973569869995
2066,1716.2003617286682
2067,1717.012366771698
2068,1717.879371881485
2069,1718.7753772735596
2070,1719.6363825798035
2071,1720.5073878765106
2072,1721.3923931121826
2073,1722.2333981990814
2074,1723.059403181076
2075,1723.8714082241058
2076,1724.701413154602
2077,1725.5224180221558
2078,1726.3714232444763
2079,1727.2404284477234
2080,1728.0854334831238
2081,1728.9434387683868
2082,1729.830444097519
2083,1730.7204494476318
2084,1731.6184549331665
2085,1732.5264604091644
2086,1733.3944656848907
2087,1734.2794709205627
2088,1735.1484761238098
2089,1735.9934813976288
2090,1736.8324863910675
2091,1737.6654913425446
2092,1738.4704961776733
2093,1739.2835011482239
2094,1740.1245062351227
2095,1740.9895114898682
2096,1741.9085171222687
2097,1742.7865223884583
2098,1743.692527770996
2099,1744.58953332901
2100,1745.4365384578705
2101,1746.2805435657501
2102,1747.114548444748
2103,1747.9215533733368
2104,1748.7255582809448
2105,1749.537563085556
2106,1750.3505680561066
2107,1751.1755731105804
2108,1751.999577999115
2109,1752.8025827407837
2110,1753.6275877952576
2111,1754.454592704773
2112,1755.2875978946686
2113,1756.1256029605865
2114,1757.006608247757
2115,1757.8876135349274
2116,1758.8046190738678
2117,1759.7106244564056
2118,1760.6026298999786
2119,1761.5026352405548
2120,1762.4236409664154
2121,1763.2986462116241
2122,1764.168651342392
2123,1765.0416567325592
2124,1765.8506615161896
2125,1766.6256663799286
2126,1767.4026708602905
2127,1768.1986758708954
2128,1769.0366809368134
2129,1769.9236862659454
2130,1770.8386917114258
2131,1771.7506971359253
2132,1772.6297025680542
2133,1773.5307080745697
2134,1774.4467134475708
2135,1775.3777191638947
2136,1776.2897245883942
2137,1777.2037301063538
2138,1778.1247358322144
2139,1778.992740869522
2140,1779.8737461566925
2141,1780.7347514629364
2142,1781.5637564659119
2143,1782.3487613201141
2144,1783.0937657356262
2145,1783.9227707386017
2146,1784.788775920868
2147,1785.7077815532684
2148,1786.6357870101929
2149,1787.5437924861908
2150,1788.4367978572845
2151,1789.3518035411835
2152,1790.2488088607788
2153,1791.137814283371
2154,1792.0098195075989
2155,1792.815824508667
2156,1793.6118292808533
2157,1794.398833990097
2158,1795.2078387737274
2159,1796.0328438282013
2160,1796.8438487052917
2161,1797.7058539390564
2162,1798.5488591194153
2163,1799.4078640937805
2164,1800.2678694725037
2165,1801.1188745498657
2166,1801.9568796157837
2167,1802.7918846607208
2168,1803.6178896427155
2169,1804.430894613266
2170,1805.2518994808197
2171,1806.081904411316
2172,1806.9109094142914
2173,1807.759914636612
2174,1808.6219198703766
2175,1809.479924917221
2176,1810.3439302444458
2177,1811.2079355716705
2178,1812.0429406166077
2179,1812.883945465088
2180,1813.7219505310059
2181,1814.5649557113647
2182,1815.4369609355927
2183,1816.317966222763
2184,1817.1939716339111
2185,1818.0849769115448
2186,1818.996982574463
2187,1819.8529877662659
2188,1820.6849927902222
2189,1821.5559978485107
2190,1822.4050030708313
2191,1823.2750082015991
2192,1824.1640136241913
2193,1825.0670192241669
2194,1825.9610245227814
2195,1826.8270297050476
2196,1827.7050349712372
2197,1828.5940403938293
2198,1829.4840457439423
2199,1830.3630511760712
2200,1831.2500565052032
2201,1832.1370618343353
2202,1833.0360672473907
2203,1833.9520728588104
2204,1834.8160779476166
2205,1835.7280836105347
2206,1836.62708902359
2207,1837.515094280243
2208,1838.3670995235443
2209,1839.2391047477722
2210,1840.1361100673676
2211,1841.0431156158447
2212,1841.9211208820343
2213,1842.8271262645721
2214,1843.711131811142
2215,1844.5371367931366
2216,1845.3571417331696
2217,1846.1751465797424
2218,1847.0281517505646
2219,1847.8791568279266
2220,1848.7641623020172
2221,1849.6621675491333
2222,1850.5631730556488
2223,1851.463178396225
2224,1852.3351838588715
2225,1853.2021889686584
2226,1854.0631942749023
2227,1854.9221994876862
2228,1855.774204492569
2229,1856.5822093486786
2230,1857.3612141609192
2231,1858.1042184829712
2232,1858.8952233791351
2233,1859.697228193283
2234,1860.5192332267761
2235,1861.3742382526398
2236,1862.2692437171936
2237,1863.1282489299774
2238,1863.993254184723
2239,1864.8612594604492
2240,1865.7402646541595
2241,1866.6122698783875
2242,1867.5012753009796
2243,1868.3772807121277
2244,1869.2652859687805
2245,1870.1652913093567
2246,1871.0682969093323
2247,1871.9803023338318
2248,1872.8773078918457
2249,1873.7473130226135
2250,1874.635318517685
2251,1875.5263237953186
2252,1876.3983290195465
2253,1877.330334663391
2254,1878.2183401584625
2255,1879.1163454055786
2256,1880.0163509845734
2257,1880.8753561973572
2258,1881.680361032486
2259,1882.4943659305573
2260,1883.328370809555
2261,1884.1903760433197
2262,1885.060381412506
2263,1885.979386806488
2264,1886.8663921356201
2265,1887.7373974323273
2266,1888.6104028224945
2267,1889.4614078998566
2268,1890.3374133110046
2269,1891.2234184741974
2270,1892.1004238128662
2271,1892.9714291095734
2272,1893.802434206009
2273,1894.6294391155243
2274,1895.4594440460205
2275,1896.3004491329193
2276,1897.178454399109
2277,1898.0874600410461
2278,1899.0124654769897
2279,1899.9534711837769
2280,1900.8994770050049
2281,1901.8474826812744
2282,1902.78448843956
2283,1903.671493768692
2284,1904.5724992752075
2285,1905.401504278183
2286,1906.23450922966
2287,1907.0055139064789
2288,1907.7295181751251
2289,1908.443522453308
2290,1909.1635267734528
2291,1909.8715312480927
2292,1910.6015355587006
2293,1911.3335399627686
2294,1912.0785443782806
2295,1912.8645491600037
2296,1913.6825542449951
2297,1914.5265593528748
2298,1915.3655643463135
2299,1916.2095694541931
2300,1917.0495743751526
2301,1917.8745794296265
2302,1918.6595842838287
2303,1919.4275889396667
2304,1920.1805934906006
2305,1920.9445979595184
2306,1921.674602508545
2307,1922.4186069965363
2308,1923.187611579895
2309,1923.9816162586212
2310,1924.7996213436127
2311,1925.6396262645721
2312,1926.4746313095093
2313,1927.2756361961365
2314,1928.0516409873962
2315,1928.8296456336975
2316,1929.5986502170563
2317,1930.3706548213959
2318,1931.1936597824097
2319,1931.9976646900177
2320,1932.7886695861816
2321,1933.633674621582
2322,1934.47367978096
2323,1935.2996847629547
2324,1936.1256897449493
2325,1936.9166944026947
2326,1937.7246992588043
2327,1938.5267040729523
2328,1939.302708864212
2329,1940.0597133636475
2330,1940.836718082428
2331,1941.6327228546143
2332,1942.4227275848389
2333,1943.2387325763702
2334,1944.0347373485565
2335,1944.798742055893
2336,1945.5557465553284
2337,1946.3037512302399
2338,1947.0167553424835
2339,1947.739759683609
2340,1948.4517641067505
2341,1949.1657683849335
2342,1949.8917727470398
2343,1950.6327772140503
2344,1951.40878200531
2345,1952.1987867355347
2346,1952.9957914352417
2347,1953.7897963523865
2348,1954.584801197052
2349,1955.3538057804108
2350,1956.082810163498
2351,1956.767814397812
2352,1957.4708185195923
2353,1958.1708228588104
2354,1958.9008271694183
2355,1959.607831478119
2356,1960.2838354110718
2357,1960.9648396968842
2358,1961.7348442077637
2359,1962.5248489379883
2360,1963.3038537502289
2361,1964.0818583965302
2362,1964.9008634090424
2363,1965.7698686122894
2364,1966.6288738250732
2365,1967.485878944397
2366,1968.3298840522766
2367,1969.1718890666962
2368,1969.9958941936493
2369,1970.8118991851807
2370,1971.5939037799835
2371,1972.329908132553
2372,1973.0659127235413
2373,1973.8279173374176
2374,1974.6699223518372
2375,1975.548927783966
2376,1976.4509332180023
2377,1977.3349385261536
2378,1978.2129437923431
2379,1979.0769488811493
2380,1979.9299540519714
2381,1980.7799592018127
2382,1981.6269643306732
2383,1982.4489693641663
2384,1983.2459740638733
2385,1984.053978919983
2386,1984.8719840049744
2387,1985.733989238739
2388,1986.625994682312
2389,1987.5230000019073
2390,1988.3250048160553
2391,1989.11700963974
2392,1989.8740141391754
2393,1990.6070187091827
2394,1991.4150235652924
2395,1992.2100281715393
2396,1993.0000331401825
2397,1993.793037891388
2398,1994.590042591095
2399,1995.3610472679138
2400,1996.126051902771
2401,1996.8950564861298
2402,1997.6840612888336
2403,1998.4790661334991
2404,1999.2740709781647
2405,2000.0750758647919
2406,2000.892080783844
2407,2001.7100856304169
2408,2002.53209066391
2409,2003.3280954360962
2410,2004.1231002807617
2411,2004.8941049575806
2412,2005.6761095523834
2413,2006.491114616394
2414,2007.3311195373535
2415,2008.2351250648499
2416,2009.0961301326752
2417,2009.9691355228424
2418,2010.8321406841278
2419,2011.7381460666656
2420,2012.694151878357
2421,2013.5971574783325
2422,2014.4841628074646
2423,2015.3501679897308
2424,2016.1651728153229
2425,2016.9361774921417
2426,2017.6991822719574
2427,2018.4901869297028
2428,2019.2961919307709
2429,2020.072196483612
2430,2020.8652012348175
2431,2021.6792061328888
2432,2022.5152113437653
2433,2023.3282160758972
2434,2024.1612212657928
2435,2024.955225944519
2436,2025.7192306518555
2437,2026.5192353725433
2438,2027.3492405414581
2439,2028.1582453250885
2440,2028.9802503585815
2441,2029.820255279541
2442,2030.6522603034973
2443,2031.4482650756836
2444,2032.2472701072693
2445,2033.0412747859955
2446,2033.8632798194885
2447,2034.67928481102
2448,2035.5052897930145
2449,2036.2902944087982
2450,2037.0712990760803
2451,2037.863303899765
2452,2038.6193084716797
2453,2039.3913130760193
2454,2040.165317773819
2455,2040.9363224506378
2456,2041.7383272647858
2457,2042.5043318271637
2458,2043.2493364810944
2459,2044.005341053009
2460,2044.7463455200195
2461,2045.467349767685
2462,2046.1533539295197
2463,2046.8573582172394
2464,2047.5973627567291
2465,2048.3333671092987
2466,2049.0713715553284
2467,2049.799376010895
2468,2050.5133802890778
2469,2051.257384777069
2470,2051.9823892116547
2471,2052.742393732071
2472,2053.4683980941772
2473,2054.1604022979736
2474,2054.870406627655
2475,2055.5834109783173
2476,2056.311415195465
2477,2057.034419775009
2478,2057.7504239082336
2479,2058.4884283542633
2480,2059.213432788849
2481,2059.9564373493195
2482,2060.678441762924
2483,2061.4174461364746
2484,2062.164450645447
2485,2062.9014551639557
2486,2063.6364595890045
2487,2064.3314638137817
2488,2065.052468061447
2489,2065.7754724025726
2490,2066.4994769096375
2491,2067.2284812927246
2492,2067.936485528946
2493,2068.629489660263
2494,2069.330493927002
2495,2070.0224981307983
2496,2070.7025022506714
2497,2071.4035065174103
2498,2072.102510690689
2499,2072.8055148124695
2500,2073.5375192165375
2501,2074.247523546219
2502,2074.968528032303
2503,2075.6995322704315
2504,2076.419536590576
2505,2077.1735413074493
2506,2077.9035456180573
2507,2078.627550125122
2508,2079.3615543842316
2509,2080.0675587654114
2510,2080.8015632629395
2511,2081.54056763649
2512,2082.2835721969604
2513,2083.0805768966675
2514,2083.891581773758
2515,2084.7375869750977
2516,2085.577591896057
2517,2086.3655967712402
2518,2087.1806015968323
2519,2087.9446063041687
2520,2088.673610687256
2521,2089.423615217209
2522,2090.1976199150085
2523,2090.988624572754
2524,2091.8036296367645
2525,2092.588634252548
2526,2093.2966384887695
2527,2094.010643005371
2528,2094.717647075653
2529,2095.4316515922546
2530,2096.245656490326
2531,2097.1036615371704
2532,2097.984666824341
2533,2098.839672088623
2534,2099.6636769771576
2535,2100.4876821041107
2536,2101.2956869602203
2537,2102.0946917533875
2538,2102.923696756363
2539,2103.7157015800476
2540,2104.516706228256
2541,2105.360711336136
2542,2106.2017164230347
2543,2107.069721698761
2544,2107.917726993561
2545,2108.7747321128845
2546,2109.634737253189
2547,2110.4467420578003
2548,2111.2677471637726
2549,2112.0597519874573
2550,2112.8327565193176
2551,2113.6067612171173
2552,2114.3337655067444
2553,2115.09677028656
2554,2115.860774755478
2555,2116.64577960968
2556,2117.4517843723297
2557,2118.218789100647
2558,2119.043794155121
2559,2119.8317987918854
2560,2120.6658039093018
2561,2121.4658086299896
2562,2122.302813768387
2563,2123.1388187408447
2564,2123.975823879242
2565,2124.8458290100098
2566,2125.705834388733
2567,2126.589839696884
2568,2127.461844921112
2569,2128.3478503227234
2570,2129.2628557682037
2571,2130.2098615169525
2572,2131.1688673496246
2573,2132.1118729114532
2574,2133.0548787117004
2575,2133.914883852005
2576,2134.7388887405396
2577,2135.4928934574127
2578,2136.2618980407715
2579,2137.0799028873444
2580,2137.975908279419
2581,2138.890913963318
2582,2139.77791929245
2583,2140.6639246940613
2584,2141.5399298667908
2585,2142.3819348812103
2586,2143.247940301895
2587,2144.0749452114105
2588,2144.9049501419067
2589,2145.746955394745
2590,2146.527960062027
2591,2147.3049647808075
2592,2148.045969247818
2593,2148.8199739456177
2594,2149.5989785194397
2595,2150.4139833450317
2596,2151.283988714218
2597,2152.1099936962128
2598,2152.9569988250732
2599,2153.7760038375854
2600,2154.620008945465
2601,2155.435013771057
2602,2156.250018596649
2603,2157.088023662567
2604,2157.915028810501
2605,2158.7520337104797
2606,2159.568038702011
2607,2160.3970437049866
2608,2161.2610490322113
2609,2162.0990540981293
2610,2162.970059156418
2611,2163.82706451416
2612,2164.6910696029663
2613,2165.5360748767853
2614,2166.3610796928406
2615,2167.208084821701
2616,2168.0380897521973
2617,2168.8830950260162
2618,2169.7851004600525
2619,2170.7081060409546
2620,2171.6291115283966
2621,2172.529116868973
2622,2173.3781220912933
2623,2174.1951270103455
2624,2174.956131696701
2625,2175.7641365528107
2626,2176.537141084671
2627,2177.3011457920074
2628,2178.073150396347
2629,2178.809154987335
2630,2179.617159843445
2631,2180.4351646900177
2632,2181.301169872284
2633,2182.175175189972
2634,2183.0601806640625
2635,2183.916185617447
2636,2184.7301907539368
2637,2185.524195432663
2638,2186.336200237274
2639,2187.129205226898
2640,2187.9432101249695
2641,2188.7942152023315
2642,2189.626220226288
2643,2190.5072255134583
2644,2191.3722307682037
2645,2192.2342360019684
2646,2193.1082413196564
2647,2194.0082466602325
2648,2194.8952519893646
2649,2195.807257413864
2650,2196.720263004303
2651,2197.6372685432434
2652,2198.546273946762
2653,2199.42227935791
2654,2200.3082847595215
2655,2201.1672899723053
2656,2201.9982948303223
2657,2202.862300157547
2658,2203.7273054122925
2659,2204.6113107204437
2660,2205.528316259384
2661,2206.450321674347
2662,2207.2963268756866
2663,2208.102331638336
2664,2208.9223368167877
2665,2209.7753417491913
2666,2210.673347234726
2667,2211.5403525829315
2668,2212.4623579978943
2669,2213.340363264084
2670,2214.2123687267303
2671,2215.0833740234375
2672,2215.9033789634705
2673,2216.7033836841583
2674,2217.4913885593414
2675,2218.302393436432
2676,2219.1253983974457
2677,2219.934403181076
2678,2220.792408466339
2679,2221.6534135341644
2680,2222.502418756485
2681,2223.361423969269
2682,2224.1904289722443
2683,2225.010433912277
2684,2225.851438999176
2685,2226.6804440021515
2686,2227.522449016571
2687,2228.3884541988373
2688,2229.231459379196
2689,2230.0814645290375
2690,2230.9294695854187
2691,2231.7684745788574
2692,2232.6294798851013
2693,2233.50648522377
2694,2234.3834903240204
2695,2235.2774958610535
2696,2236.1435010433197
2697,2237.031506538391
2698,2237.9135117530823
2699,2238.756516933441
2700,2239.6365220546722
2701,2240.499527454376
2702,2241.337532520294
2703,2242.2035377025604
2704,2243.0915429592133
2705,2243.9575481414795
2706,2244.8505535125732
2707,2245.729558944702
2708,2246.627564430237
2709,2247.514569759369
2710,2248.365574836731
2711,2249.2465801239014
2712,2250.162585735321
2713,2251.034590959549
2714,2251.919596195221
2715,2252.7496013641357
2716,2253.5346059799194
2717,2254.2666103839874
2718,2255.025614976883
2719,2255.8046197891235
2720,2256.633624792099
2721,2257.497629880905
2722,2258.3826353549957
2723,2259.2706406116486
2724,2260.1136457920074
2725,2260.960650920868
2726,2261.7686557769775
2727,2262.597660779953
2728,2263.417665719986
2729,2264.291671037674
2730,2265.139676094055
2731,2266.0126814842224
2732,2266.888686656952
2733,2267.7376918792725
2734,2268.6076970100403
2735,2269.4887022972107
2736,2270.327707529068
2737,2271.1897127628326
2738,2272.0367176532745
2739,2272.8947229385376
2740,2273.759728193283
2741,2274.62873339653
2742,2275.507738828659
2743,2276.359743833542
2744,2277.209748983383
2745,2278.024753808975
2746,2278.85275888443
2747,2279.687763929367
2748,2280.5217690467834
2749,2281.363774061203
2750,2282.186779022217
2751,2283.016783952713
2752,2283.8857893943787
2753,2284.762794494629
2754,2285.6317999362946
2755,2286.5068051815033
2756,2287.3858103752136
2757,2288.2598156929016
2758,2289.1318209171295
2759,2289.9568259716034
2760,2290.7748308181763
2761,2291.5108354091644
2762,2292.2718398571014
2763,2293.0188443660736
2764,2293.731848716736
2765,2294.480853319168
2766,2295.267858028412
2767,2296.0908629894257
2768,2296.9858684539795
2769,2297.8898737430573
2770,2298.7758791446686
2771,2299.6468844413757
2772,2300.476889371872
2773,2301.2998943328857
2774,2302.082899093628
2775,2302.872904062271
2776,2303.6659088134766
2777,2304.4629135131836
2778,2305.2969186306
2779,2306.160923719406
2780,2307.0129289627075
2781,2307.908934354782
2782,2308.8309400081635
2783,2309.721945285797
2784,2310.5889506340027
2785,2311.4589557647705
2786,2312.3229610919952
2787,2313.2219665050507
2788,2314.134971857071
2789,2315.0309772491455
2790,2315.923982858658
2791,2316.8479883670807
2792,2317.75999379158
2793,2318.6589992046356
2794,2319.5210044384003
2795,2320.40100979805
2796,2321.3020153045654
2797,2322.201020717621
2798,2323.0940260887146
2799,2324.0160315036774
2800,2324.8740367889404
2801,2325.726042032242
2802,2326.5910470485687
2803,2327.415052175522
2804,2328.198056936264
2805,2328.9180612564087
2806,2329.747066259384
2807,2330.642071723938
2808,2331.6040773391724
2809,2332.505082845688
2810,2333.445088624954
2811,2334.352093935013
2812,2335.22309923172
2813,2336.045104265213
2814,2336.8041088581085
2815,2337.563113451004
2816,2338.3711183071136
2817,2339.214123249054
2818,2340.0711286067963
2819,2340.93013381958
2820,2341.761138677597
2821,2342.5691435337067
2822,2343.3811485767365
2823,2344.203153371811
2824,2345.025158405304
2825,2345.876163482666
2826,2346.73516869545
2827,2347.575173854828
2828,2348.405178785324
2829,2349.189183473587
2830,2349.9901883602142
2831,2350.799193382263
2832,2351.633198261261
2833,2352.457203388214
2834,2353.3332085609436
2835,2354.23721408844
2836,2355.088219165802
2837,2355.911224126816
2838,2356.7522292137146
2839,2357.6112344264984
2840,2358.5032398700714
2841,2359.4092452526093
2842,2360.3272507190704
2843,2361.20925617218
2844,2362.0642614364624
2845,2362.909266471863
2846,2363.7402713298798
2847,2364.5542764663696
2848,2365.36328125
2849,2366.1482858657837
2850,2366.9402906894684
2851,2367.748295545578
2852,2368.5513005256653
2853,2369.3733055591583
2854,2370.1723103523254
2855,2370.96031498909
2856,2371.816320180893
2857,2372.6393251419067
2858,2373.381329536438
2859,2374.117334127426
2860,2374.8453385829926
2861,2375.558342695236
2862,2376.262346982956
2863,2377.032351732254
2864,2377.8023562431335
2865,2378.6303613185883
2866,2379.5293667316437
2867,2380.464372396469
2868,2381.416378259659
2869,2382.2863833904266
2870,2383.1453886032104
2871,2383.990393638611
2872,2384.859398841858
2873,2385.704404115677
2874,2386.4934089183807
2875,2387.2724134922028
2876,2388.07541847229
2877,2388.895423412323
2878,2389.757428407669
2879,2390.5674333572388
2880,2391.389438390732
2881,2392.206443309784
2882,2393.049448490143
2883,2393.8524532318115
2884,2394.6054577827454
2885,2395.3674623966217
2886,2396.147467136383
2887,2396.965471982956
2888,2397.7524766921997
2889,2398.558481693268
2890,2399.3814866542816
2891,2400.223491668701
2892,2401.0194964408875
2893,2401.852501630783
2894,2402.675506591797
2895,2403.4755113124847
2896,2404.2665162086487
2897,2405.0405209064484
2898,2405.809525489807
2899,2406.5615298748016
2900,2407.345534801483
2901,2408.1445395946503
2902,2408.970544576645
2903,2409.7505493164062
2904,2410.519553899765
2905,2411.316558599472
2906,2412.139563560486
2907,2412.9395685195923
2908,2413.7505733966827
2909,2414.569578409195
2910,2415.335582971573
2911,2416.1125876903534
2912,2416.879592180252
2913,2417.6645970344543
2914,2418.422601699829
2915,2419.203606367111
2916,2419.987611055374
2917,2420.7656157016754
2918,2421.5686206817627
2919,2422.3636252880096
2920,2423.1216299533844
2921,2423.862634420395
2922,2424.5856387615204
2923,2425.2776429653168
2924,2425.954647064209
2925,2426.6386511325836
2926,2427.33265542984
2927,2428.066659927368
2928,2428.8256645202637
2929,2429.5736689567566
2930,2430.343673467636
2931,2431.1226782798767
2932,2431.9016830921173
2933,2432.6856877803802
2934,2433.4606924057007
2935,2434.2396969795227
2936,2435.00670170784
2937,2435.7837064266205
2938,2436.568711042404
2939,2437.3537158966064
2940,2438.151720762253
2941,2438.9567255973816
2942,2439.8127307891846
2943,2440.6617357730865
2944,2441.528741121292
2945,2442.39874625206
2946,2443.238751411438
2947,2444.075756549835
2948,2444.906761407852
2949,2445.74476647377
2950,2446.5657715797424
2951,2447.3727762699127
2952,2448.1857812404633
2953,2448.9997861385345
2954,2449.813791036606
2955,2450.6647963523865
2956,2451.501801252365
2957,2452.32980632782
2958,2453.145811319351
2959,2453.9418160915375
2960,2454.7718210220337
2961,2455.592826128006
2962,2456.461831331253
2963,2457.2868361473083
2964,2458.097841024399
2965,2458.9078459739685
2966,2459.6938507556915
2967,2460.504855632782
2968,2461.3188605308533
2969,2462.125865459442
2970,2462.971870660782
2971,2463.8468759059906
2972,2464.743881225586
2973,2465.619886636734
2974,2466.5148918628693
2975,2467.4158973693848
2976,2468.284902572632
2977,2469.1569077968597
2978,2470.0339131355286
2979,2470.9449186325073
2980,2471.860924243927
2981,2472.749929666519
2982,2473.605934858322
2983,2474.4539399147034
2984,2475.266944885254
2985,2476.102949857712
2986,2476.9599549770355
2987,2477.8239603042603
2988,2478.709965467453
2989,2479.6109709739685
2990,2480.472976207733
2991,2481.334981441498
2992,2482.1959867477417
2993,2483.041991710663
2994,2483.8849968910217
2995,2484.6920018196106
2996,2485.480006456375
2997,2486.301011323929
2998,2487.120016336441
2999,2487.989021539688
3000,2488.868026971817
3001,2489.768032312393
3002,2490.647037744522
3003,2491.5250430107117
3004,2492.422048330307
3005,2493.273053407669
3006,2494.1200585365295
3007,2494.990063905716
3008,2495.8600690364838
3009,2496.748074531555
3010,2497.636079788208
3011,2498.5390853881836
3012,2499.467090845108
3013,2500.414096593857
3014,2501.339102268219
3015,2502.3031079769135
3016,2503.2311136722565
3017,2504.1561191082
3018,2505.0981249809265
3019,2505.9751303195953
3020,2506.846135377884
3021,2507.720140695572
3022,2508.5641458034515
3023,2509.4211509227753
3024,2510.229155778885
3025,2511.082160949707
3026,2511.953166246414
3027,2512.8111715316772
3028,2513.6981768608093
3029,2514.5981822013855
3030,2515.4571874141693
3031,2516.3411927223206
3032,2517.2151980400085
3033,2518.1092035770416
3034,2518.9772086143494
3035,2519.849214076996
3036,2520.718219280243
3037,2521.530224084854
3038,2522.3562290668488
3039,2523.1812341213226
3040,2523.9892389774323
3041,2524.8162438869476
3042,2525.6432490348816
3043,2526.4302537441254
3044,2527.1852581501007
3045,2527.9922630786896
3046,2528.80526804924
3047,2529.6132729053497
3048,2530.448277950287
3049,2531.2912831306458
3050,2532.1172881126404
3051,2532.92129278183
3052,2533.719297647476
3053,2534.5153024196625
3054,2535.307307243347
3055,2536.116312265396
3056,2536.9253170490265
3057,2537.767322063446
3058,2538.5883271694183
3059,2539.4603323936462
3060,2540.3603377342224
3061,2541.2493431568146
3062,2542.127348423004
3063,2543.0233538150787
3064,2543.8663589954376
3065,2544.7233641147614
3066,2545.5733692646027
3067,2546.3883740901947
3068,2547.2213792800903
3069,2548.042384147644
3070,2548.8573892116547
3071,2549.715394258499
3072,2550.576399564743
3073,2551.456404685974
3074,2552.3414101600647
3075,2553.2014153003693
3076,2554.0824205875397
3077,2554.9764261245728
3078,2555.8284311294556
3079,2556.7034363746643
3080,2557.569441795349
3081,2558.4174468517303
3082,2559.2524518966675
3083,2560.0484566688538
3084,2560.834461450577
3085,2561.6574664115906
3086,2562.5444717407227
3087,2563.427477121353
3088,2564.374482870102
3089,2565.272488117218
3090,2566.12549328804
3091,2566.9544982910156
3092,2567.837503671646
3093,2568.731509208679
3094,2569.6365146636963
3095,2570.5025198459625
3096,2571.385525226593
3097,2572.2465302944183
3098,2573.0975353717804
3099,2573.959540605545
3100,2574.802545785904
3101,2575.6755509376526
3102,2576.543556213379
3103,2577.4065613746643
3104,2578.2615666389465
3105,2579.1205718517303
3106,2579.9545769691467
3107,2580.8225820064545
3108,2581.697587490082
3109,2582.5575926303864
3110,2583.4445979595184
3111,2584.324603319168
3112,2585.193608522415
3113,2586.068613767624
3114,2586.9326190948486
3115,2587.8076243400574
3116,2588.670629501343
3117,2589.5166347026825
3118,2590.3856399059296
3119,2591.229645013809
3120,2592.1096501350403
3121,2592.99365568161
3122,2593.8896610736847
3123,2594.7766664028168
3124,2595.681671857834
3125,2596.54967713356
3126,2597.432682275772
3127,2598.3216876983643
3128,2599.1686928272247
3129,2600.055698156357
3130,2600.9457035064697
3131,2601.803708791733
3132,2602.615713596344
3133,2603.4367187023163
3134,2604.272723674774
3135,2605.0737285614014
3136,2605.8727333545685
3137,2606.663738012314
3138,2607.501743078232
3139,2608.3967485427856
3140,2609.2707538604736
3141,2610.1627593040466
3142,2611.0577647686005
3143,2611.907769680023
3144,2612.771775007248
3145,2613.6207802295685
3146,2614.4507851600647
3147,2615.2997903823853
3148,2616.1507954597473
3149,2617.00480055809
3150,2617.8858058452606
3151,2618.770811319351
3152,2619.656816482544
3153,2620.530821800232
3154,2621.3768270015717
3155,2622.244832277298
3156,2623.0738372802734
3157,2623.930842399597
3158,2624.7868475914
3159,2625.6288526058197
3160,2626.5078580379486
3161,2627.3908631801605
3162,2628.27086853981
3163,2629.163873910904
3164,2630.039879322052
3165,2630.9338846206665
3166,2631.7948899269104
3167,2632.6588950157166
3168,2633.5519003868103
3169,2634.420905828476
3170,2635.322911262512
3171,2636.223916530609
3172,2637.1429221630096
3173,2638.043927669525
3174,2638.8969328403473
3175,2639.699937582016
3176,2640.5209424495697
3177,2641.3299474716187
3178,2642.102952003479
3179,2642.8979568481445
3180,2643.7849621772766
3181,2644.6719675064087
3182,2645.573972940445
3183,2646.480978488922
3184,2647.3699839115143
3185,2648.260989189148
3186,2649.157994747162
3187,2650.0510001182556
3188,2650.950005531311
3189,2651.857011079788
3190,2652.7540163993835
3191,2653.6670219898224
3192,2654.595027446747
3193,2655.5120329856873
3194,2656.3880383968353
3195,2657.2910437583923
3196,2658.1880493164062
3197,2659.1090548038483
3198,2660.0470604896545
3199,2660.956065893173
3200,2661.7880709171295
3201,2662.6000759601593
3202,2663.4330809116364
3203,2664.2960860729218
3204,2665.1630914211273
3205,2666.0680968761444
3206,2666.977102279663
3207,2667.872107744217
3208,2668.754112958908
3209,2669.5981180667877
3210,2670.4521231651306
3211,2671.307128429413
3212,2672.1791336536407
3213,2673.0251388549805
3214,2673.888144016266
3215,2674.788149356842
3216,2675.649154663086
3217,2676.557160139084
3218,2677.462165594101
3219,2678.3421709537506
3220,2679.2171761989594
3221,2680.0991814136505
3222,2680.9181864261627
3223,2681.7251913547516
3224,2682.498195886612
3225,2683.273200750351
3226,2684.1232059001923
3227,2684.9922111034393
3228,2685.8942165374756
3229,2686.7822217941284
3230,2687.662227153778
3231,2688.537232398987
3232,2689.375237464905
3233,2690.2422428131104
3234,2691.08624792099
3235,2691.9312529563904
3236,2692.7812581062317
3237,2693.6362631320953
3238,2694.4782683849335
3239,2695.328273534775
3240,2696.1682784557343
3241,2697.025283575058
3242,2697.860288619995
3243,2698.716293811798
3244,2699.572299003601
3245,2700.4263043403625
3246,2701.2953095436096
3247,2702.1573147773743
3248,2703.017319917679
3249,2703.8823251724243
3250,2704.7143301963806
3251,2705.5833353996277
3252,2706.431340456009
3253,2707.2593455314636
3254,2708.0933504104614
3255,2708.898355484009
3256,2709.7223603725433
3257,2710.569365501404
3258,2711.4423706531525
3259,2712.3163759708405
3260,2713.2033812999725
3261,2714.0593864917755
3262,2714.927391767502
3263,2715.8233971595764
3264,2716.6734023094177
3265,2717.453407049179
3266,2718.1824114322662
3267,2719.059416770935
3268,2719.916421890259
3269,2720.7524268627167
3270,2721.589432001114
3271,2722.4284369945526
3272,2723.327442407608
3273,2724.2464480400085
3274,2725.181453704834
3275,2726.0984592437744
3276,2727.0014646053314
3277,2727.8914699554443
3278,2728.7334752082825
3279,2729.5714802742004
3280,2730.3874850273132
3281,2731.181489944458
3282,2731.9774947166443
3283,2732.7634994983673
3284,2733.5675044059753
3285,2734.368509054184
3286,2735.1665139198303
3287,2735.9885189533234
3288,2736.7955238819122
3289,2737.585528612137
3290,2738.4135336875916
3291,2739.239538669586
3292,2740.0635435581207
3293,2740.898548603058
3294,2741.71355342865
3295,2742.5315585136414
3296,2743.350563287735
3297,2744.1715683937073
3298,2744.995573282242
3299,2745.83357834816
3300,2746.6565833091736
3301,2747.487588405609
3302,2748.310593366623
3303,2749.1395983695984
3304,2749.9886033535004
3305,2750.806608438492
3306,2751.615613222122
3307,2752.4376182556152
3308,2753.2666232585907
3309,2754.1126284599304
3310,2754.9786336421967
3311,2755.8506388664246
3312,2756.6886439323425
3313,2757.519649028778
3314,2758.3076536655426
3315,2759.102658510208
3316,2759.9016633033752
3317,2760.72566819191
3318,2761.5666732788086
3319,2762.400678396225
3320,2763.253683567047
3321,2764.1186888217926
3322,2764.999694108963
3323,2765.888699531555
3324,2766.7417047023773
3325,2767.601709842682
3326,2768.4637150764465
3327,2769.3307201862335
3328,2770.1717252731323
3329,2771.0377304553986
3330,2771.92573595047
3331,2772.8217413425446
3332,2773.736746788025
3333,2774.623752117157
3334,2775.5197575092316
3335,2776.412763118744
3336,2777.2727682590485
3337,2778.148773431778
3338,2778.99977850914
3339,2779.880784034729
3340,2780.7397890090942
3341,2781.584794282913
3342,2782.425799369812
3343,2783.294804573059
3344,2784.112809419632
3345,2784.9418144226074
3346,2785.754819393158
3347,2786.5448241233826
3348,2787.3458290100098
3349,2788.1708340644836
3350,2789.0568392276764
3351,2789.9698448181152
3352,2790.877850294113
3353,2791.7328555583954
3354,2792.540860414505
3355,2793.322865009308
3356,2794.090869665146
3357,2794.9028747081757
3358,2795.709879398346
3359,2796.53688454628
3360,2797.315889120102
3361,2798.1098940372467
3362,2798.9228990077972
3363,2799.688903570175
3364,2800.439908027649
3365,2801.173912525177
3366,2801.92591714859
3367,2802.6619215011597
3368,2803.405925989151
3369,2804.173930644989
3370,2804.9829354286194
3371,2805.710939884186
3372,2806.4329442977905
3373,2807.1479485034943
3374,2807.9069530963898
3375,2808.7269580364227
3376,2809.568963289261
3377,2810.362967967987
3378,2811.177972793579
3379,2811.968977689743
3380,2812.7149822711945
3381,2813.434986591339
3382,2814.128990650177
3383,2814.805994749069
3384,2815.4659988880157
3385,2816.117002725601
3386,2816.762006521225
3387,2817.4050104618073
3388,2818.0560145378113
3389,2818.720018386841
3390,2819.3850224018097
3391,2820.0580265522003
3392,2820.737030506134
3393,2821.404034614563
3394,2822.0730385780334
3395,2822.7500426769257
3396,2823.439046859741
3397,2824.1830513477325
3398,2824.9930562973022
3399,2825.835061311722
3400,2826.656066417694
3401,2827.4440710544586
3402,2828.209075689316
3403,2828.958080291748
3404,2829.7250847816467
3405,2830.494089603424
3406,2831.2680943012238
3407,2832.0560989379883
3408,2832.8371036052704
3409,2833.5891082286835
3410,2834.3521127700806
3411,2835.132117509842
3412,2835.9431223869324
3413,2836.748127222061
3414,2837.570132255554
3415,2838.396137237549
3416,2839.1671419143677
3417,2839.9211463928223
3418,2840.692151069641
3419,2841.460155725479
3420,2842.230160474777
3421,2842.966164827347
3422,2843.700169324875
3423,2844.443173646927
3424,2845.190178155899
3425,2845.9341826438904
3426,2846.697187423706
3427,2847.443191766739
3428,2848.2141964435577
3429,2848.92520070076
3430,2849.6842052936554
3431,2850.4212098121643
3432,2851.1422142982483
3433,2851.8462183475494
3434,2852.535222530365
3435,2853.2102267742157
3436,2853.8752307891846
3437,2854.5402348041534
3438,2855.201238632202
3439,2855.866242647171
3440,2856.518246650696
3441,2857.1782505512238
3442,2857.8492546081543
3443,2858.5652589797974
3444,2859.362263917923
3445,2860.2412691116333
3446,2861.152274608612
3447,2862.011279821396
3448,2862.869285106659
3449,2863.700289964676
3450,2864.506294965744
3451,2865.282299518585
3452,2866.007303953171
3453,2866.736308336258
3454,2867.502312898636
3455,2868.2613174915314
3456,2869.0473222732544
3457,2869.857327222824
3458,2870.6703321933746
3459,2871.474336862564
3460,2872.2583417892456
3461,2873.026346206665
3462,2873.773350715637
3463,2874.5083553791046
3464,2875.2673597335815
3465,2876.052364587784
3466,2876.832369327545
3467,2877.6043739318848
3468,2878.390378713608
3469,2879.191383600235
3470,2879.9833884239197
3471,2880.775393009186
3472,2881.5543978214264
3473,2882.3354024887085
3474,2883.167407512665
3475,2884.0274126529694
3476,2884.83841753006
3477,2885.6634225845337
3478,2886.464427471161
3479,2887.242432117462
3480,2888.018436908722
3481,2888.8094415664673
3482,2889.637446641922
3483,2890.504451751709
3484,2891.3864572048187
3485,2892.3074626922607
3486,2893.242468357086
3487,2894.1854741573334
3488,2895.099479675293
3489,2895.9494848251343
3490,2896.799489736557
3491,2897.634494781494
3492,2898.4534997940063
3493,2899.2595047950745
3494,2900.080509662628
3495,2900.941514968872
3496,2901.8325202465057
3497,2902.7285256385803
3498,2903.64253115654
3499,2904.5395364761353
3500,2905.434541940689
3501,2906.3225474357605
3502,2907.1895525455475
3503,2908.0265576839447
3504,2908.8805627822876
3505,2909.7605681419373
3506,2910.6645736694336
3507,2911.589579105377
3508,2912.510584592819
3509,2913.366589784622
3510,2914.2265951633453
3511,2915.12060046196
3512,2915.9986057281494
3513,2916.878611087799
3514,2917.755616426468
3515,2918.6136214733124
3516,2919.475626707077
3517,2920.3426320552826
3518,2921.2126371860504
3519,2922.066642522812
3520,2922.9246475696564
3521,2923.7496526241302
3522,2924.565657377243
3523,2925.361662387848
3524,2926.1956672668457
3525,2927.014672279358
3526,2927.8746774196625
3527,2928.731682538986
3528,2929.5846877098083
3529,2930.4166927337646
3530,2931.2156975269318
3531,2932.0227024555206
3532,2932.8267073631287
3533,2933.5957119464874
3534,2934.356716632843
3535,2935.08372092247
3536,2935.885725736618
3537,2936.7167308330536
3538,2937.5567359924316
3539,2938.4137411117554
3540,2939.2437460422516
3541,2940.0917513370514
3542,2940.9567563533783
3543,2941.8307616710663
3544,2942.6997668743134
3545,2943.558772087097
3546,2944.4137773513794
3547,2945.271782398224
3548,2946.1617879867554
3549,2947.0457932949066
3550,2947.905798435211
3551,2948.779803752899
3552,2949.6328089237213
3553,2950.4678139686584
3554,2951.3268191814423
3555,2952.1858241558075
3556,2953.029829263687
3557,2953.892834663391
3558,2954.7688398361206
3559,2955.6128449440002
3560,2956.4598500728607
3561,2957.311855316162
3562,2958.161860227585
3563,2958.980865240097
3564,2959.815870285034
3565,2960.692875623703
3566,2961.52788066864
3567,2962.363885641098
3568,2963.21689081192
3569,2964.055895805359
3570,2964.9069011211395
3571,2965.7419061660767
3572,2966.587911128998
3573,2967.44491648674
3574,2968.3059215545654
3575,2969.162926673889
3576,2970.0159318447113
3577,2970.8919372558594
3578,2971.731942176819
3579,2972.588947534561
3580,2973.4679527282715
3581,2974.3269579410553
3582,2975.1979632377625
3583,2976.095968723297
3584,2977.0029740333557
3585,2977.901979446411
3586,2978.760984659195
3587,2979.651990175247
3588,2980.559995651245
3589,2981.4340007305145
3590,2982.3280062675476
3591,2983.2550117969513
3592,2984.119017124176
3593,2984.9950222969055
3594,2985.873027563095
3595,2986.716032743454
3596,2987.587038040161
3597,2988.46404337883
3598,2989.295048236847
3599,2990.1290533542633
3600,2990.950058221817
3601,2991.744063138962
3602,2992.5290677547455
3603,2993.3520727157593
3604,2994.193077802658
3605,2995.0320830345154
3606,2995.873088121414
3607,2996.730093240738
3608,2997.601098537445
3609,2998.4441034793854
3610,2999.3021087646484
3611,3000.180114030838
3612,3001.0301191806793
3613,3001.8801243305206
3614,3002.712129354477
3615,3003.5281343460083
3616,3004.3661394119263
3617,3005.2091443538666
3618,3006.0661494731903
3619,3006.935154914856
3620,3007.823160171509
3621,3008.7131655216217
3622,3009.631170988083
3623,3010.50617647171
3624,3011.3801815509796
3625,3012.250186920166
3626,3013.0821919441223
3627,3013.944197177887
3628,3014.813202381134
3629,3015.654207468033
3630,3016.528212785721
3631,3017.420218229294
3632,3018.279223203659
3633,3019.140228509903
3634,3019.991233587265
3635,3020.82123875618
3636,3021.659243822098
3637,3022.4962487220764
3638,3023.3132536411285
3639,3024.1432588100433
3640,3024.9452636241913
3641,3025.74826836586
3642,3026.586273431778
3643,3027.44127869606
3644,3028.295283794403
3645,3029.1532888412476
3646,3030.0122940540314
3647,3030.8692994117737
3648,3031.7373044490814
3649,3032.625309944153
3650,3033.546315431595
3651,3034.471321105957
3652,3035.345326423645
3653,3036.253331899643
3654,3037.1753373146057
3655,3038.058342695236
3656,3038.974348306656
3657,3039.8783535957336
3658,3040.728358745575
3659,3041.5753638744354
3660,3042.4353692531586
3661,3043.3023743629456
3662,3044.185379743576
3663,3045.0843851566315
3664,3045.9533903598785
3665,3046.821395635605
3666,3047.6834008693695
3667,3048.5374059677124
3668,3049.415411233902
3669,3050.269416332245
3670,3051.1104214191437
3671,3051.945426464081
3672,3052.7454314231873
3673,3053.5494363307953
3674,3054.3794412612915
3675,3055.2534465789795
3676,3056.103451728821
3677,3056.9084565639496
3678,3057.752461671829
3679,3058.6364669799805
3680,3059.5384724140167
3681,3060.422477722168
3682,3061.278482913971
3683,3062.166488170624
3684,3063.0814938545227
3685,3063.9954993724823
3686,3064.8695046901703
3687,3065.7255098819733
3688,3066.5665147304535
3689,3067.3885197639465
3690,3068.167524576187
3691,3068.9405291080475
3692,3069.7235338687897
3693,3070.5515389442444
3694,3071.3865439891815
3695,3072.2735493183136
3696,3073.1975548267365
3697,3074.09056019783
3698,3074.9585654735565
3699,3075.8495709896088
3700,3076.736576318741
3701,3077.6115815639496
3702,3078.45858669281
3703,3079.3345918655396
3704,3080.25159740448
3705,3081.148602962494
3706,3082.0546083450317
3707,3082.9706139564514
3708,3083.8476192951202
3709,3084.7246243953705
3710,3085.596629858017
3711,3086.442634820938
3712,3087.300640106201
3713,3088.1646451950073
3714,3089.029650449753
3715,3089.9016556739807
3716,3090.782660961151
3717,3091.6546664237976
3718,3092.549671649933
3719,3093.459677219391
3720,3094.327682495117
3721,3095.21768784523
3722,3096.120693206787
3723,3097.0066986083984
3724,3097.9317042827606
3725,3098.8187096118927
3726,3099.682714700699
3727,3100.5487201213837
3728,3101.394725084305
3729,3102.215730190277
3730,3103.046735048294
3731,3103.899740219116
3732,3104.7297451496124
3733,3105.6007504463196
3734,3106.4897558689117
3735,3107.344761133194
3736,3108.2237663269043
3737,3109.106771707535
3738,3109.987776994705
3739,3110.875782251358
3740,3111.7847878932953
3741,3112.679793357849
3742,3113.548798561096
3743,3114.4278037548065
3744,3115.263808965683
3745,3116.083813905716
3746,3116.867818593979
3747,3117.646823167801
3748,3118.4578280448914
3749,3119.2618329524994
3750,3120.10883808136
3751,3121.0868439674377
3752,3122.0328497886658
3753,3123.0108556747437
3754,3123.9398612976074
3755,3124.843866586685
3756,3125.7508721351624
3757,3126.6768777370453
3758,3127.5708832740784
3759,3128.481888771057
3760,3129.4118943214417
3761,3130.344899892807
3762,3131.2999057769775
3763,3132.224911212921
3764,3133.1549167633057
3765,3134.1239228248596
3766,3135.0529284477234
3767,3135.9869339466095
3768,3136.8719394207
3769,3137.8029448986053
3770,3138.7539505958557
3771,3139.678956270218
3772,3140.6479620933533
3773,3141.5889678001404
3774,3142.5169734954834
3775,3143.459979057312
3776,3144.33198428154
3777,3145.2149896621704
3778,3146.089994907379
3779,3146.933000087738
3780,3147.78600525856
3781,3148.677010536194
3782,3149.61301612854
3783,3150.5320217609406
3784,3151.4780275821686
3785,3152.410033226013
3786,3153.3050384521484
3787,3154.240044116974
3788,3155.1280496120453
3789,3156.0100548267365
3790,3156.9170603752136
3791,3157.8770661354065
3792,3158.792071580887
3793,3159.7060770988464
3794,3160.605082511902
3795,3161.4840879440308
3796,3162.3960933685303
3797,3163.333099126816
3798,3164.2421045303345
3799,3165.1851103305817
3800,3166.172116279602
3801,3167.0921218395233
3802,3167.986127138138
3803,3168.8401322364807
3804,3169.6471371650696
3805,3170.4411420822144
3806,3171.2891471385956
3807,3172.173152446747
3808,3173.0661578178406
3809,3173.985163450241
3810,3174.93216919899
3811,3175.835174560547
3812,3176.7481801509857
3813,3177.6731855869293
3814,3178.587191104889
3815,3179.4641964435577
3816,3180.3422017097473
3817,3181.2362072467804
3818,3182.1592128276825
3819,3183.0632181167603
3820,3183.98122382164
3821,3184.848228931427
3822,3185.657233953476
3823,3186.4372386932373
3824,3187.191243171692
3825,3188.045248270035
3826,3188.885253429413
3827,3189.7222583293915
3828,3190.6342639923096
3829,3191.482269048691
3830,3192.3082740306854
3831,3193.1432790756226
3832,3194.0562846660614
3833,3195.040290594101
3834,3196.0392966270447
3835,3196.990302324295
3836,3197.900307893753
3837,3198.715312719345
3838,3199.5313177108765
3839,3200.322322368622
3840,3201.0803270339966
3841,3201.808331489563
3842,3202.522335767746
3843,3203.2243399620056
3844,3203.9403443336487
3845,3204.68234872818
3846,3205.4253532886505
3847,3206.1893577575684
3848,3206.9693624973297
3849,3207.7663674354553
3850,3208.589372396469
3851,3209.4213774204254
3852,3210.2753825187683
3853,3211.099387407303
3854,3211.941392660141
3855,3212.8333978652954
3856,3213.7674036026
3857,3214.7364094257355
3858,3215.722415447235
3859,3216.726421356201
3860,3217.701427221298
3861,3218.6624331474304
3862,3219.615438938141
3863,3220.548444509506
3864,3221.4414498806
3865,3222.3064551353455
3866,3223.173460483551
3867,3224.096466064453
3868,3225.0764718055725
3869,3226.1024780273438
3870,3226.9994835853577
3871,3227.863488674164
3872,3228.7204937934875
3873,3229.5374987125397
3874,3230.2825033664703
3875,3230.989507675171
3876,3231.7095119953156
3877,3232.4345161914825
3878,3233.172520637512
3879,3234.0265259742737
3880,3234.944531440735
3881,3235.8865370750427
3882,3236.8125426769257
3883,3237.7125482559204
3884,3238.5485532283783
3885,3239.372558116913
3886,3240.2055633068085
3887,3241.0435683727264
3888,3241.8845734596252
3889,3242.7295784950256
3890,3243.6015837192535
3891,3244.4605889320374
3892,3245.2765939235687
3893,3246.0715985298157
3894,3246.876603603363
3895,3247.7266085147858
3896,3248.6186139583588
3897,3249.488619327545
3898,3250.3286242485046
3899,3251.1376292705536
3900,3251.938634157181
3901,3252.7386388778687
3902,3253.52064371109
3903,3254.2616481781006
3904,3255.0116527080536
3905,3255.7696571350098
3906,3256.539661884308
3907,3257.3426666259766
3908,3258.1516716480255
3909,3258.996676683426
3910,3259.777681350708
3911,3260.525685787201
3912,3261.2546904087067
3913,3261.996694803238
3914,3262.797699689865
3915,3263.631704568863
3916,3264.474709749222
3917,3265.289714574814
3918,3266.105719566345
3919,3266.910724401474
3920,3267.6877291202545
3921,3268.4347336292267
3922,3269.146738052368
3923,3269.8367421627045
3924,3270.5147461891174
3925,3271.187750339508
3926,3271.8747544288635
3927,3272.6437590122223
3928,3273.448763847351
3929,3274.2877690792084
3930,3275.146774291992
3931,3276.031779527664
3932,3276.898784637451
3933,3277.738789796829
3934,3278.548794746399
3935,3279.3357994556427
3936,3280.0888040065765
3937,3280.8338084220886
3938,3281.6118133068085
3939,3282.419818162918
3940,3283.2518231868744
3941,3284.0948281288147
3942,3284.875832796097
3943,3285.6668376922607
3944,3286.430842399597
3945,3287.1528465747833
3946,3287.8628509044647
3947,3288.559855222702
3948,3289.2388591766357
3949,3289.9138634204865
3950,3290.5918674468994
3951,3291.2718715667725
3952,3291.9498755931854
3953,3292.6328797340393
3954,3293.3288838863373
3955,3294.030888080597
3956,3294.7278923988342
3957,3295.423896551132
3958,3296.1339008808136
3959,3296.8349051475525
3960,3297.549909353256
3961,3298.2829139232635
3962,3299.019918203354
3963,3299.807923078537
3964,3300.677928209305
3965,3301.566933631897
3966,3302.4939393997192
3967,3303.4219448566437
3968,3304.338950395584
3969,3305.236955881119
3970,3306.089961051941
3971,3306.924966096878
3972,3307.781971216202
3973,3308.6539764404297
3974,3309.5489819049835
3975,3310.445987224579
3976,3311.3419926166534
3977,3312.2189979553223
3978,3313.1080033779144
3979,3313.9920086860657
3980,3314.8460137844086
3981,3315.657018661499
3982,3316.4960238933563
3983,3317.3260288238525
3984,3318.1770339012146
3985,3319.043039083481
3986,3319.8450441360474
3987,3320.664048910141
3988,3321.465053796768
3989,3322.2830588817596
3990,3323.0980637073517
3991,3323.910068511963
3992,3324.7250735759735
3993,3325.5560784339905
3994,3326.382083415985
3995,3327.1950883865356
3996,3328.024093389511
3997,3328.86309838295
3998,3329.669103384018
3999,3330.4961082935333
4000,3331.356113433838
4001,3332.234118938446
4002,3333.0921239852905
4003,3333.959129333496
4004,3334.8301346302032
4005,3335.6421394348145
4006,3336.4431443214417
4007,3337.2331490516663
4008,3338.069154024124
4009,3338.9051592350006
4010,3339.730164051056
4011,3340.565169095993
4012,3341.4011743068695
4013,3342.215179204941
4014,3343.027184009552
4015,3343.8121888637543
4016,3344.597193479538
4017,3345.3581981658936
4018,3346.110202550888
4019,3346.9182074069977
4020,3347.723212480545
4021,3348.5502173900604
4022,3349.3882224559784
4023,3350.233227491379
4024,3351.08523273468
4025,3351.942237854004
4026,3352.80824303627
4027,3353.6732482910156
4028,3354.525253534317
4029,3355.361258506775
4030,3356.212263584137
4031,3357.0762689113617
4032,3357.957274198532
4033,3358.8122792243958
4034,3359.701284646988
4035,3360.537289619446
4036,3361.342294692993
4037,3362.132299423218
4038,3362.912304162979
4039,3363.732309103012
4040,3364.584314107895
4041,3365.445319414139
4042,3366.316324710846
4043,3367.204329967499
4044,3368.023334980011
4045,3368.8553400039673
4046,3369.6823449134827
4047,3370.530349969864
4048,3371.383355140686
4049,3372.2473604679108
4050,3373.1213657855988
4051,3374.023371219635
4052,3374.8733763694763
4053,3375.731381416321
4054,3376.527386188507
4055,3377.316390991211
4056,3378.065395593643
4057,3378.8434002399445
4058,3379.70840549469
4059,3380.6254110336304
4060,3381.5664167404175
4061,3382.5044224262238
4062,3383.4284279346466
4063,3384.309433221817
4064,3385.198438644409
4065,3386.0814440250397
4066,3386.9384491443634
4067,3387.7754542827606
4068,3388.622459411621
4069,3389.4834644794464
4070,3390.335469722748
4071,3391.2104749679565
4072,3392.090480327606
4073,3392.986485719681
4074,3393.8904910087585
4075,3394.7644963264465
4076,3395.627501487732
4077,3396.4795067310333
4078,3397.308511734009
4079,3398.138516664505
4080,3398.957521677017
4081,3399.7735266685486
4082,3400.6195316314697
4083,3401.455536842346
4084,3402.2825417518616
4085,3403.147547006607
4086,3403.9995522499084
4087,3404.8655574321747
4088,3405.747562646866
4089,3406.5935678482056
4090,3407.4575729370117
4091,3408.3185782432556
4092,3409.147583246231
4093,3409.983588218689
4094,3410.8175933361053
4095,3411.657598257065
4096,3412.533603668213
4097,3413.412608861923
4098,3414.292614221573
4099,3415.2086198329926
4100,3416.123625278473
4101,3417.0416309833527
4102,3417.992636680603
4103,3418.9046421051025
4104,3419.8436477184296
4105,3420.72865319252
4106,3421.5706582069397
4107,3422.3966631889343
4108,3423.203668117523
4109,3423.990672826767
4110,3424.8246779441833
4111,3425.7226831912994
4112,3426.584688425064
4113,3427.458693742752
4114,3428.350699186325
4115,3429.220704317093
4116,3430.1107099056244
4117,3430.9797151088715
4118,3431.8387203216553
4119,3432.7077255249023
4120,3433.559730529785
4121,3434.42373585701
4122,3435.256740808487
4123,3436.1247460842133
4124,3436.9927513599396
4125,3437.847756385803
4126,3438.728761911392
4127,3439.582767009735
4128,3440.4437720775604
4129,3441.3047773838043
4130,3442.1377823352814
4131,3442.999787569046
4132,3443.8667929172516
4133,3444.7197980880737
4134,3445.58380317688
4135,3446.436808347702
4136,3447.271813392639
4137,3448.133818626404
4138,3449.0068237781525
4139,3449.839828968048
4140,3450.711834192276
4141,3451.5768394470215
4142,3452.4228444099426
4143,3453.2968497276306
4144,3454.205855369568
4145,3455.125860929489
4146,3456.047866344452
4147,3456.931871652603
4148,3457.8188769817352
4149,3458.669882297516
4150,3459.5348875522614
4151,3460.3698925971985
4152,3461.1688973903656
4153,3461.995902299881
4154,3462.795907020569
4155,3463.5959119796753
4156,3464.418916940689
4157,3465.225921869278
4158,3466.071926832199
4159,3466.950932264328
4160,3467.8309376239777
4161,3468.694942712784
4162,3469.5559480190277
4163,3470.395952939987
4164,3471.240958213806
4165,3472.079963207245
4166,3472.914968252182
4167,3473.7569732666016
4168,3474.5759782791138
4169,3475.420983314514
4170,3476.310988664627
4171,3477.1909940242767
4172,3478.0819993019104
4173,3478.9790048599243
4174,3479.8840103149414
4175,3480.7900156974792
4176,3481.688021183014
4177,3482.5760264396667
4178,3483.4750320911407
4179,3484.3290371894836
4180,3485.1650421619415
4181,3486.027047395706
4182,3486.9060525894165
4183,3487.7670578956604
4184,3488.6750633716583
4185,3489.552068710327
4186,3490.4120738506317
4187,3491.296079158783
4188,3492.1550843715668
4189,3493.010089635849
4190,3493.862094640732
4191,3494.6980998516083
4192,3495.5431048870087
4193,3496.38910984993
4194,3497.2371151447296
4195,3498.0551199913025
4196,3498.902125120163
4197,3499.7491302490234
4198,3500.6041355133057
4199,3501.4891407489777
4200,3502.34414601326
4201,3503.2171511650085
4202,3504.118156671524
4203,3504.987161874771
4204,3505.9021673202515
4205,3506.787172794342
4206,3507.658178091049
4207,3508.507183074951
4208,3509.343188047409
4209,3510.204193353653
4210,3511.0681986808777
4211,3511.9072036743164
4212,3512.7222084999084
4213,3513.5182132720947
4214,3514.324218273163
4215,3515.2022235393524
4216,3516.134229183197
4217,3517.0382347106934
4218,3517.9582402706146
4219,3518.886245727539
4220,3519.758250951767
4221,3520.6232562065125
4222,3521.493261575699
4223,3522.3152663707733
4224,3523.182271718979
4225,3524.053277015686
4226,3524.899281978607
4227,3525.7702872753143
4228,3526.6562926769257
4229,3527.55029797554
4230,3528.4543035030365
4231,3529.332308769226
4232,3530.2003140449524
4233,3531.059319257736
4234,3531.923324584961
4235,3532.785329580307
4236,3533.661334991455
4237,3534.530340194702
4238,3535.4113454818726
4239,3536.3343510627747
4240,3537.2063562870026
4241,3538.1183619499207
4242,3539.002367258072
4243,3539.870372533798
4244,3540.748377799988
4245,3541.6043829917908
4246,3542.4663882255554
4247,3543.329393386841
4248,3544.162398338318
4249,3544.9364030361176
4250,3545.696407556534
4251,3546.4364120960236
4252,3547.178416490555
4253,3548.034421682358
4254,3548.940427303314
4255,3549.8194324970245
4256,3550.72043800354
4257,3551.6194434165955
4258,3552.482448577881
4259,3553.3594539165497
4260,3554.2164590358734
4261,3555.0744643211365
4262,3555.953469514847
4263,3556.8434748649597
4264,3557.7604804039
4265,3558.6624858379364
4266,3559.5404913425446
4267,3560.4394967556
4268,3561.3385021686554
4269,3562.2055072784424
4270,3563.0665125846863
4271,3563.92151761055
4272,3564.738522529602
4273,3565.568527698517
4274,3566.414532661438
4275,3567.2585377693176
4276,3568.1205430030823
4277,3568.9915482997894
4278,3569.8505535125732
4279,3570.7315587997437
4280,3571.6215641498566
4281,3572.487569332123
4282,3573.342574596405
4283,3574.196579694748
4284,3575.05158495903
4285,3575.882589817047
4286,3576.673594713211
4287,3577.488599538803
4288,3578.3506047725677
4289,3579.2586102485657
4290,3580.2206161022186
4291,3581.1476216316223
4292,3582.0216269493103
4293,3582.906632423401
4294,3583.765637397766
4295,3584.6096425056458
4296,3585.427647590637
4297,3586.199652194977
4298,3587.0026569366455
4299,3587.8606622219086
4300,3588.7296674251556
4301,3589.6236729621887
4302,3590.487678050995
4303,3591.3676834106445
4304,3592.2546887397766
4305,3593.1316940784454
4306,3594.009699344635
4307,3594.8517043590546
4308,3595.7117097377777
4309,3596.5867149829865
4310,3597.467720270157
4311,3598.369725704193
4312,3599.244730949402
4313,3600.1607365608215
4314,3601.0617418289185
4315,3601.978747367859
4316,3602.8847529888153
4317,3603.7657582759857
4318,3604.652763605118
4319,3605.5167689323425
4320,3606.389774084091
4321,3607.2757794857025
4322,3608.1427845954895
4323,3609.0337901115417
4324,3609.9257955551147
4325,3610.799800634384
4326,3611.699806213379
4327,3612.566811323166
4328,3613.4448165893555
4329,3614.313822031021
4330,3615.162827014923
4331,3616.041832447052
4332,3616.9018375873566
4333,3617.7578427791595
4334,3618.6468482017517
4335,3619.558853626251
4336,3620.432858943939
4337,3621.299864053726
4338,3622.1178691387177
4339,3622.908873796463
4340,3623.6858785152435
4341,3624.4958834648132
4342,3625.3178882598877
4343,3626.1938936710358
4344,3627.1018991470337
4345,3628.0439047813416
4346,3628.952910423279
4347,3629.857915878296
4348,3630.723921060562
4349,3631.575926065445
4350,3632.4379312992096
4351,3633.2949364185333
4352,3634.1689417362213
4353,3635.0659472942352
4354,3635.966952562332
4355,3636.829957962036
4356,3637.6719629764557
4357,3638.5179681777954
4358,3639.3769731521606
4359,3640.261978626251
4360,3641.175984144211
4361,3642.0309891700745
4362,3642.881994485855
4363,3643.722999572754
4364,3644.5680046081543
4365,3645.4530098438263
4366,3646.35001540184
4367,3647.2370207309723
4368,3648.0980257987976
4369,3648.9510309696198
4370,3649.8070361614227
4371,3650.64204120636
4372,3651.438045978546
4373,3652.248050928116
4374,3653.0910561084747
4375,3653.962061405182
4376,3654.863066673279
4377,3655.67707157135
4378,3656.483076572418
4379,3657.2740812301636
4380,3658.0730860233307
4381,3658.912091255188
4382,3659.7770965099335
4383,3660.669101715088
4384,3661.545107126236
4385,3662.3511118888855
4386,3663.1561167240143
4387,3663.933121442795
4388,3664.679126024246
4389,3665.409130334854
4390,3666.180135011673
4391,3666.9611399173737
4392,3667.7641446590424
4393,3668.5811495780945
4394,3669.427154779434
4395,3670.2801599502563
4396,3671.084164619446
4397,3671.835169315338
4398,3672.584173679352
4399,3673.3251781463623
4400,3674.0751826763153
4401,3674.8321874141693
4402,3675.6001920700073
4403,3676.3761966228485
4404,3677.1212010383606
4405,3677.867205619812
4406,3678.5922100543976
4407,3679.3222143650055
4408,3680.0362186431885
4409,3680.758223056793
4410,3681.4842274188995
4411,3682.192231655121
4412,3682.9092361927032
4413,3683.6302404403687
4414,3684.354244709015
4415,3685.0602490901947
4416,3685.7742533683777
4417,3686.4942576885223
4418,3687.2202620506287
4419,3687.9582664966583
4420,3688.663270711899
4421,3689.3672749996185
4422,3690.074279308319
4423,3690.7662835121155
4424,3691.445287704468
4425,3692.1292917728424
4426,3692.8372960090637
4427,3693.5803005695343
4428,3694.3463051319122
4429,3695.137310028076
4430,3695.901314496994
4431,3696.674319267273
4432,3697.4253237247467
4433,3698.1783282756805
4434,3698.927332878113
4435,3699.6443371772766
4436,3700.347341299057
4437,3701.050345659256
4438,3701.7913501262665
4439,3702.619355201721
4440,3703.455360174179
4441,3704.308365345001
4442,3705.1663703918457
4443,3705.980375289917
4444,3706.7823803424835
4445,3707.573385000229
4446,3708.3713898658752
4447,3709.1413943767548
4448,3709.9253993034363
4449,3710.6874039173126
4450,3711.4194083213806
4451,3712.1644127368927
4452,3712.9514174461365
4453,3713.731422185898
4454,3714.5134270191193
4455,3715.2744314670563
4456,3716.0314359664917
4457,3716.7744405269623
4458,3717.533445119858
4459,3718.3444499969482
4460,3719.1774549484253
4461,3720.0124599933624
4462,3720.810464859009
4463,3721.59046959877
4464,3722.338474035263
4465,3723.046478509903
4466,3723.760482788086
4467,3724.494487285614
4468,3725.2854919433594
4469,3726.067496776581
4470,3726.863501548767
4471,3727.6335060596466
4472,3728.3545105457306
4473,3729.095515012741
4474,3729.796019077301
4475,3730.4965233802795
4476,3731.1745274066925
4477,3731.9488654136658
4478,3732.723203420639
4479,3733.4975414276123
4480,3734.255546092987
4481,3735.000550508499
4482,3735.735554933548
4483,3736.4755594730377
4484,3737.209563970566
4485,3737.9315683841705
4486,3738.639572620392
4487,3739.3255767822266
4488,3739.9875807762146
4489,3740.6375846862793
4490,3741.271588563919
4491,3741.9235923290253
4492,3742.5695962905884
4493,3743.219600200653
4494,3743.8926043510437
4495,3744.603608608246
4496,3745.355613231659
4497,3746.085617542267
4498,3746.8066217899323
4499,3747.512626171112
4500,3748.2406306266785
4501,3748.9706349372864
4502,3749.7046394348145
4503,3750.4526438713074
4504,3751.1996483802795
4505,3751.930652856827
4506,3752.6486570835114
4507,3753.360661506653
4508,3754.0616657733917
4509,3754.7896699905396
4510,3755.4986743927
4511,3756.2236788272858
4512,3756.968683242798
4513,3757.694687604904
4514,3758.426692008972
4515,3759.161696434021
4516,3759.9287011623383
4517,3760.720705986023
4518,3761.5237107276917
4519,3762.334715604782
4520,3763.133720397949
4521,3763.9137251377106
4522,3764.709729909897
4523,3765.490734577179
4524,3766.258739233017
4525,3767.0097439289093
4526,3767.745748281479
4527,3768.4837527275085
4528,3769.22975730896
4529,3769.959761619568
4530,3770.6867661476135
4531,3771.4087703227997
4532,3772.137774705887
4533,3772.8597791194916
4534,3773.574783563614
4535,3774.26478767395
4536,3774.9577918052673
4537,3775.6187958717346
4538,3776.3198001384735
4539,3777.027804374695
4540,3777.6808083057404
4541,3778.3928124904633
4542,3779.1058168411255
4543,3779.833821296692
4544,3780.596825838089
4545,3781.398830652237
4546,3782.2348358631134
4547,3783.0628407001495
4548,3783.893845796585
4549,3784.7278509140015
4550,3785.53085565567
4551,3786.314860343933
4552,3787.087865114212
4553,3787.8578696250916
4554,3788.690874814987
4555,3789.5728800296783
4556,3790.4228851795197
4557,3791.3018906116486
4558,3792.208895921707
4559,3793.152901649475
4560,3794.0259070396423
4561,3794.8739120960236
4562,3795.7619173526764
4563,3796.6739230155945
4564,3797.6099286079407
4565,3798.491933822632
4566,3799.366939306259
4567,3800.2479445934296
4568,3801.1389498710632
4569,3802.018955230713
4570,3802.858960390091
4571,3803.7369656562805
4572,3804.622971057892
4573,3805.5149762630463
4574,3806.37398147583
4575,3807.2189865112305
4576,3808.087991952896
4577,3808.9719972610474
4578,3809.882002592087
4579,3810.757008075714
4580,3811.6200132369995
4581,3812.511018514633
4582,3813.4070239067078
4583,3814.3050293922424
4584,3815.1590344905853
4585,3816.024039745331
4586,3816.8830449581146
4587,3817.754050254822
4588,3818.654055595398
4589,3819.548061132431
4590,3820.4290664196014
4591,3821.354071855545
4592,3822.283077478409
4593,3823.2270832061768
4594,3824.115088701248
4595,3824.969093799591
4596,3825.833099126816
4597,3826.694104194641
4598,3827.5671095848083
4599,3828.4141144752502
4600,3829.275119781494
4601,3830.1421251296997
4602,3831.0311303138733
4603,3831.9041357040405
4604,3832.7781410217285
4605,3833.672146320343
4606,3834.5761518478394
4607,3835.474157333374
4608,3836.354162454605
4609,3837.2451679706573
4610,3838.138173341751
4611,3839.0021784305573
4612,3839.887183904648
4613,3840.784189224243
4614,3841.7221949100494
4615,3842.633200407028
4616,3843.531205892563
4617,3844.483211517334
4618,3845.4512174129486
4619,3846.4092233181
4620,3847.3052287101746
4621,3848.237234354019
4622,3849.1542398929596
4623,3850.0712454319
4624,3850.9462506771088
4625,3851.8232560157776
4626,3852.7102613449097
4627,3853.610266685486
4628,3854.5002720355988
4629,3855.368277311325
4630,3856.276282787323
4631,3857.2132885456085
4632,3858.1502940654755
4633,3859.04629945755
4634,3859.9623050689697
4635,3860.864310503006
4636,3861.7663159370422
4637,3862.6473212242126
4638,3863.5413267612457
4639,3864.4523322582245
4640,3865.3813378810883
4641,3866.2793431282043
4642,3867.2223489284515
4643,3868.157354593277
4644,3869.1133604049683
4645,3870.0313658714294
4646,3870.966371536255
4647,3871.891377210617
4648,3872.8543829917908
4649,3873.752388238907
4650,3874.6583938598633
4651,3875.515398979187
4652,3876.3394038677216
4653,3877.132408618927
4654,3877.941413640976
4655,3878.8044188022614
4656,3879.699424266815
4657,3880.636429786682
4658,3881.523435354233
4659,3882.4324407577515
4660,3883.349446296692
4661,3884.25945186615
4662,3885.159457206726
4663,3886.0484626293182
4664,3886.9454679489136
4665,3887.859473466873
4666,3888.7664790153503
4667,3889.667484521866
4668,3890.585489988327
4669,3891.5234956741333
4670,3892.429501056671
4671,3893.3325066566467
4672,3894.2385120391846
4673,3895.121517419815
4674,3896.019522666931
4675,3896.9405283927917
4676,3897.881534099579
4677,3898.783539533615
4678,3899.7015450000763
4679,3900.6265506744385
4680,3901.5795562267303
4681,3902.5175619125366
4682,3903.4455676078796
4683,3904.3735733032227
4684,3905.322578907013
4685,3906.232584476471
4686,3907.151589870453
4687,3908.066595554352
4688,3908.9856009483337
4689,3909.8936064243317
4690,3910.7926120758057
4691,3911.7166175842285
4692,3912.6586232185364
4693,3913.626629114151
4694,3914.5466346740723
4695,3915.4856402873993
4696,3916.4546461105347
4697,3917.420651912689
4698,3918.352657556534
4699,3919.2836632728577
4700,3920.2156689167023
4701,3921.173674583435
4702,3922.070680141449
4703,3922.9826855659485
4704,3923.9066910743713
4705,3924.859696865082
4706,3925.761702299118
4707,3926.669707775116
4708,3927.5857133865356
4709,3928.489718914032
4710,3929.355724096298
4711,3930.256729364395
4712,3931.1657350063324
4713,3932.108740568161
4714,3933.0197460651398
4715,3933.939751625061
4716,3934.867757320404
4717,3935.778762817383
4718,3936.654768228531
4719,3937.541773557663
4720,3938.429778814316
4721,3939.292783975601
4722,3940.148789167404
4723,3941.002794265747
4724,3941.879799604416
4725,3942.718804836273
4726,3943.5848100185394
4727,3944.476815223694
4728,3945.391820907593
4729,3946.277826309204
4730,3947.181831598282
4731,3948.071836948395
4732,3948.973842382431
4733,3949.85484790802
4734,3950.752853155136
4735,3951.6728587150574
4736,3952.6268644332886
4737,3953.5338699817657
4738,3954.4548754692078
4739,3955.392881155014
4740,3956.339886903763
4741,3957.259892463684
4742,3958.170897960663
4743,3959.0739035606384
4744,3959.959908723831
4745,3960.856914281845
4746,3961.761919736862
4747,3962.6689252853394
4748,3963.557930469513
4749,3964.4639360904694
4750,3965.375941514969
4751,3966.285947084427
4752,3967.1929523944855
4753,3968.1009578704834
4754,3969.0109634399414
4755,3969.893968820572
4756,3970.761974096298
4757,3971.639979362488
4758,3972.543984889984
4759,3973.465990304947
4760,3974.372995853424
4761,3975.3000013828278
4762,3976.2470071315765
4763,3977.167012691498
4764,3978.0610179901123
4765,3978.974023580551
4766,3979.8910291194916
4767,3980.795034646988
4768,3981.6960401535034
4769,3982.6040456295013
4770,3983.539051294327
4771,3984.4530568122864
4772,3985.3730623722076
4773,3986.3000679016113
4774,3987.212073326111
4775,3988.1290788650513
4776,3989.0390844345093
4777,3989.9210896492004
4778,3990.83709526062
4779,3991.781100988388
4780,3992.6991064548492
4781,3993.641112089157
4782,3994.592118024826
4783,3995.515123605728
4784,3996.437129020691
4785,3997.3461344242096
4786,3998.268140077591
4787,3999.1671454906464
4788,4000.09615111351
4789,4001.0541570186615
4790,4001.987162590027
4791,4002.936168193817
4792,4003.8911740779877
4793,4004.792179584503
4794,4005.7051849365234
4795,4006.6301906108856
4796,4007.516196012497
4797,4008.349200963974
4798,4009.172205924988
4799,4009.986210823059
4800,4010.8532161712646
4801,4011.7362213134766
4802,4012.5992267131805
4803,4013.480232000351
4804,4014.386237382889
4805,4015.2792427539825
4806,4016.193248271942
4807,4017.0952537059784
4808,4017.996259212494
4809,4018.86426448822
4810,4019.734269618988
4811,4020.6222751140594
4812,4021.5072803497314
4813,4022.3832857608795
4814,4023.2652909755707
4815,4024.1612963676453
4816,4025.043301820755
4817,4025.9423072338104
4818,4026.838312625885
4819,4027.7653181552887
4820,4028.684323787689
4821,4029.590329170227
4822,4030.4383342266083
4823,4031.307339668274
4824,4032.1863448619843
4825,4033.0773503780365
4826,4033.948355436325
4827,4034.866361141205
4828,4035.7853665351868
4829,4036.745372533798
4830,4037.669378042221
4831,4038.610383749008
4832,4039.547389268875
4833,4040.5243952274323
4834,4041.455400943756
4835,4042.413406610489
4836,4043.3654124736786
4837,4044.3204181194305
4838,4045.252423763275
4839,4046.2084295749664
4840,4047.1654353141785
4841,4048.1504411697388
4842,4049.0864470005035
4843,4050.035452604294
4844,4050.989458322525
4845,4051.955464363098
4846,4052.894469976425
4847,4053.8404755592346
4848,4054.794481277466
4849,4055.775487422943
4850,4056.7774934768677
4851,4057.744499206543
4852,4058.690505027771
4853,4059.6235105991364
4854,4060.5645163059235
4855,4061.468521595001
4856,4062.3805272579193
4857,4063.2995326519012
4858,4064.220538377762
4859,4065.172544002533
4860,4066.118549823761
4861,4067.0495553016663
4862,4067.9595608711243
4863,4068.849566221237
4864,4069.749571800232
4865,4070.6405770778656
4866,4071.5155823230743
4867,4072.4125878810883
4868,4073.3245933055878
4869,4074.2335987091064
4870,4075.1796045303345
4871,4076.1176102161407
4872,4077.0246155261993
4873,4077.9416210651398
4874,4078.8556265830994
4875,4079.7456319332123
4876,4080.6556375026703
4877,4081.5466430187225
4878,4082.437648296356
4879,4083.3316535949707
4880,4084.2006590366364
4881,4085.09166431427
4882,4085.998669862747
4883,4086.8866751194
4884,4087.797680616379
4885,4088.686686038971
4886,4089.540691137314
4887,4090.4386966228485
4888,4091.353702068329
4889,4092.289707660675
4890,4093.2057132720947
4891,4094.1297187805176
4892,4095.067724466324
4893,4095.961730003357
4894,4096.894735574722
4895,4097.864741325378
4896,4098.8827476501465
4897,4099.805753231049
4898,4100.746758937836
4899,4101.6867644786835
4900,4102.582769870758
4901,4103.534775733948
4902,4104.514781475067
4903,4105.439787149429
4904,4106.406793117523
4905,4107.398798942566
4906,4108.345804691315
4907,4109.309810638428
4908,4110.324816703796
4909,4111.290822505951
4910,4112.226828098297
4911,4113.090833425522
4912,4113.961838722229
4913,4114.897844314575
4914,4115.782849550247
4915,4116.695855140686
4916,4117.615860700607
4917,4118.571866512299
4918,4119.512872219086
4919,4120.498878002167
4920,4121.46488404274
4921,4122.466889858246
4922,4123.481896162033
4923,4124.48890209198
4924,4125.489908218384
4925,4126.487914323807
4926,4127.428920030594
4927,4128.373925685883
4928,4129.286931037903
4929,4130.182936668396
4930,4131.085942029953
4931,4131.981947422028
4932,4132.893952846527
4933,4133.8359587192535
4934,4134.758964300156
4935,4135.690969705582
4936,4136.630975484848
4937,4137.51798081398
4938,4138.4239864349365
4939,4139.335991859436
4940,4140.232997179031
4941,4141.187002897263
4942,4142.196009159088
4943,4143.122014760971
4944,4144.080020427704
4945,4145.067026376724
4946,4146.008032083511
4947,4146.954037904739
4948,4147.887043476105
4949,4148.797049045563
4950,4149.722054481506
4951,4150.667060136795
4952,4151.596065759659
4953,4152.505071401596
4954,4153.421076774597
4955,4154.365082502365
4956,4155.30108833313
4957,4156.25209403038
4958,4157.19809961319
4959,4158.137105226517
4960,4159.098111152649
4961,4160.039116859436
4962,4160.972122430801
4963,4161.907128095627
4964,4162.8161334991455
4965,4163.742139101028
4966,4164.660144805908
4967,4165.567150115967
4968,4166.481155633926
4969,4167.367161035538
4970,4168.263166427612
4971,4169.176172018051
4972,4170.068177461624
4973,4170.981182813644
4974,4171.910188436508
4975,4172.820194005966
4976,4173.743199586868
4977,4174.66520524025
4978,4175.54421043396
4979,4176.440215826035
4980,4177.304221153259
4981,4178.129225969315
4982,4178.936230897903
4983,4179.771235942841
4984,4180.623241186142
4985,4181.460246086121
4986,4182.318251371384
4987,4183.209256649017
4988,4184.122262239456
4989,4185.068267822266
4990,4186.07027387619
4991,4187.028279781342
4992,4187.977285385132
4993,4188.9472913742065
4994,4189.919297218323
4995,4190.92830324173
4996,4191.9293093681335
4997,4192.852314949036
4998,4193.7763204574585
4999,4194.681325912476
5000,4195.5453312397
5001,4196.401336431503
5002,4197.242341518402
5003,4198.063346385956
5004,4198.863351345062
5005,4199.695356369019
5006,4200.569361448288
5007,4201.4883670806885
5008,4202.403372526169
5009,4203.370378494263
5010,4204.327384233475
5011,4205.227389574051
5012,4206.129395008087
5013,4207.043400526047
5014,4207.956406116486
5015,4208.855411529541
5016,4209.803417205811
5017,4210.761423110962
5018,4211.724428892136
5019,4212.62243437767
5020,4213.459439277649
5021,4214.282444238663
5022,4215.132449388504
5023,4216.113455295563
5024,4217.057461023331
5025,4218.024466991425
5026,4218.9974727630615
5027,4219.984478712082
5028,4220.972484827042
5029,4221.972490787506
5030,4222.976496696472
5031,4224.036503314972
5032,4225.061509370804
5033,4225.9775149822235
5034,4226.848520278931
5035,4227.676525115967
5036,4228.523530244827
5037,4229.464535951614
5038,4230.406541585922
5039,4231.340547323227
5040,4232.286552906036
5041,4233.225558757782
5042,4234.112564086914
5043,4235.018569469452
5044,4235.924575090408
5045,4236.834580421448
5046,4237.748585939407
5047,4238.670591592789
5048,4239.606597185135
5049,4240.57760310173
5050,4241.517608642578
5051,4242.483614683151
5052,4243.447620391846
5053,4244.30862569809
5054,4245.183630943298
5055,4246.038635969162
5056,4246.875641107559
5057,4247.697646141052
5058,4248.555651187897
5059,4249.4306564331055
5060,4250.299661874771
5061,4251.129666805267
5062,4251.977671861649
5063,4252.8386771678925
5064,4253.688682317734
5065,4254.5746874809265
5066,4255.4666929244995
5067,4256.359698295593
5068,4257.282703876495
5069,4258.21870970726
5070,4259.101714849472
5071,4259.954720020294
5072,4260.782725095749
5073,4261.649730205536
5074,4262.5637357234955
5075,4263.470741271973
5076,4264.37574672699
5077,4265.272752285004
5078,4266.193757772446
5079,4267.092763185501
5080,4268.018768787384
5081,4268.927774190903
5082,4269.818779706955
5083,4270.71578502655
5084,4271.603790521622
5085,4272.531795978546
5086,4273.480801820755
5087,4274.48580789566
5088,4275.43181347847
5089,4276.344819068909
5090,4277.274824619293
5091,4278.227830410004
5092,4279.159836053848
5093,4280.134841918945
5094,4281.150848150253
5095,4282.1228539943695
5096,4283.112859964371
5097,4284.102865934372
5098,4285.055871725082
5099,4286.02987742424
5100,4287.003883361816
5101,4287.957889080048
5102,4288.91889500618
5103,4289.86990070343
5104,4290.832906484604
5105,4291.801912307739
5106,4292.743917942047
5107,4293.695923805237
5108,4294.666929721832
5109,4295.639935493469
5110,4296.616941452026
5111,4297.578947305679
5112,4298.507952928543
5113,4299.437958478928
5114,4300.351963996887
5115,4301.265969514847
5116,4302.205975055695
5117,4303.183981180191
5118,4304.152987003326
5119,4305.167993068695
5120,4306.1729991436005
5121,4307.118004798889
5122,4308.067010641098
5123,4308.996016263962
5124,4309.90002155304
5125,4310.839027404785
5126,4311.781033039093
5127,4312.744038820267
5128,4313.708044528961
5129,4314.667050361633
5130,4315.620056152344
5131,4316.538061618805
5132,4317.47406744957
5133,4318.4210729599
5134,4319.320078611374
5135,4320.212083816528
5136,4321.106089353561
5137,4321.985094547272
5138,4322.908100128174
5139,4323.838105678558
5140,4324.807111740112
5141,4325.793117523193
5142,4326.748123407364
5143,4327.72212934494
5144,4328.650134801865
5145,4329.593140602112
5146,4330.515146017075
5147,4331.421151638031
5148,4332.326157093048
5149,4333.205162286758
5150,4334.109167814255
5151,4335.011173248291
5152,4335.926178693771
5153,4336.8671844005585
5154,4337.808190107346
5155,4338.733195781708
5156,4339.682201385498
5157,4340.652207374573
5158,4341.580212831497
5159,4342.548218727112
5160,4343.491224527359
5161,4344.425230026245
5162,4345.408236026764
5163,4346.404242038727
5164,4347.438248157501
5165,4348.4482543468475
