,ECG_peaks
0,0.0
1,0.7910041809082031
2,1.593008279800415
3,2.390012502670288
4,3.1740167140960693
5,3.9640207290649414
6,4.7630250453948975
7,5.5610291957855225
8,6.3590333461761475
9,7.164037704467773
10,7.976042032241821
11,8.778046131134033
12,9.591050386428833
13,10.407054662704468
14,11.211059093475342
15,12.019063234329224
16,12.823067426681519
17,13.610071659088135
18,14.386075735092163
19,15.175079822540283
20,15.957083940505981
21,16.754088163375854
22,17.543092250823975
23,18.334096431732178
24,19.134100675582886
25,19.93710494041443
26,20.736109018325806
27,21.536113262176514
28,22.334117650985718
29,23.129121780395508
30,23.910125732421875
31,24.69613003730774
32,25.483134031295776
33,26.25613808631897
34,27.036142349243164
35,27.818146467208862
36,28.595150470733643
37,29.381154537200928
38,30.180158853530884
39,30.99016308784485
40,31.79216742515564
41,32.61117172241211
42,33.42617583274841
43,34.23918032646179
44,35.0631844997406
45,35.886188983917236
46,36.70819330215454
47,37.509197473526
48,38.31420159339905
49,39.132205963134766
50,39.938210248947144
51,40.73521447181702
52,41.52621865272522
53,42.33322286605835
54,43.13322710990906
55,43.93023133277893
56,44.73223543167114
57,45.541239738464355
58,46.35224390029907
59,47.1662483215332
60,47.979252576828
61,48.793256759643555
62,49.6052610874176
63,50.42726540565491
64,51.251269817352295
65,52.08527421951294
66,52.920278549194336
67,53.75828289985657
68,54.59528732299805
69,55.41429162025452
70,56.232295989990234
71,57.057300329208374
72,57.87830471992493
73,58.69130897521973
74,59.498313188552856
75,60.316317558288574
76,61.13732171058655
77,61.960326194763184
78,62.78733038902283
79,63.61833477020264
80,64.44233918190002
81,65.27634358406067
82,66.1123480796814
83,66.95935249328613
84,67.80535697937012
85,68.64336133003235
86,69.47636580467224
87,70.29736995697021
88,71.1213743686676
89,71.93937873840332
90,72.75438284873962
91,73.57138729095459
92,74.3643913269043
93,75.1623957157135
94,75.96039986610413
95,76.73940396308899
96,77.51640796661377
97,78.29341220855713
98,79.06941628456116
99,79.84842038154602
100,80.63742446899414
101,81.42742872238159
102,82.21743273735046
103,83.00043678283691
104,83.77244091033936
105,84.54844498634338
106,85.3264491558075
107,86.10545325279236
108,86.88845729827881
109,87.66946148872375
110,88.45846557617188
111,89.2564697265625
112,90.05647397041321
113,90.86947822570801
114,91.69148254394531
115,92.52248692512512
116,93.3574914932251
117,94.18949580192566
118,95.02050018310547
119,95.84850454330444
120,96.66650891304016
121,97.47751307487488
122,98.2755172252655
123,99.08152151107788
124,99.87452578544617
125,100.65652990341187
126,101.43553400039673
127,102.22053813934326
128,102.99954223632812
129,103.78154635429382
130,104.56455039978027
131,105.34855461120605
132,106.13255858421326
133,106.91456270217896
134,107.67956686019897
135,108.44157075881958
136,109.2085747718811
137,109.96257877349854
138,110.71158266067505
139,111.46058678627014
140,112.19359064102173
141,112.93259453773499
142,113.6815984249115
143,114.42760229110718
144,115.18160629272461
145,115.93761014938354
146,116.70461440086365
147,117.46661829948425
148,118.23262238502502
149,118.99962639808655
150,119.75263023376465
151,120.50363421440125
152,121.251638174057
153,121.9936420917511
154,122.72664594650269
155,123.45864987373352
156,124.18365359306335
157,124.90765738487244
158,125.63166117668152
159,126.36066508293152
160,127.09766912460327
161,127.83967280387878
162,128.6086769104004
163,129.3736810684204
164,130.14568495750427
165,130.9086890220642
166,131.65669298171997
167,132.4196970462799
168,133.17870092391968
169,133.93570494651794
170,134.69870901107788
171,135.45571303367615
172,136.21171689033508
173,136.9677209854126
174,137.7297248840332
175,138.48872900009155
176,139.2447328567505
177,139.99973702430725
178,140.75074076652527
179,141.5027449131012
180,142.25774884223938
181,143.01675271987915
182,143.78475689888
183,144.55676102638245
184,145.32276487350464
185,146.08676886558533
186,146.85977292060852
187,147.62677717208862
188,148.39378118515015
189,149.15778517723083
190,149.9147891998291
191,150.66679310798645
192,151.42079710960388
193,152.17380094528198
194,152.92680501937866
195,153.68780899047852
196,154.45081305503845
197,155.20881700515747
198,155.9718210697174
199,156.73882508277893
200,157.50782918930054
201,158.2778332233429
202,159.04183721542358
203,159.79584121704102
204,160.53684496879578
205,161.28684902191162
206,161.87685203552246
207,162.46960520744324
208,163.062358379364
209,163.6551115512848
210,164.247864484787
211,164.76586723327637
212,165.2720239162445
213,165.77818036079407
214,166.28433680534363
215,166.7904932498932
216,167.29664993286133
217,167.8028063774109
218,168.30896282196045
219,168.81511926651
220,169.32127594947815
221,169.8274323940277
222,170.33358883857727
223,170.8397455215454
224,171.34590196609497
225,171.9359049797058
226,172.6429088115692
227,173.24791193008423
228,173.7149143218994
229,174.27691745758057
230,174.8579204082489
231,175.81392550468445
232,176.55392932891846
233,177.29393315315247
234,178.02793717384338
235,178.9319417476654
236,179.84994673728943
237,180.65395092964172
238,181.40295481681824
239,182.27095937728882
240,183.09096384048462
241,183.88396787643433
242,184.67097210884094
243,185.44697618484497
244,186.2099802494049
245,187.1289849281311
246,188.0709900856018
247,188.57099270820618
248,189.07599520683289
249,189.57949781417847
250,190.08300065994263
251,190.85800457000732
252,191.63600873947144
253,192.41901278495789
254,193.20201706886292
255,193.9840211868286
256,194.76402521133423
257,195.55502939224243
258,196.34903359413147
259,197.13503766059875
260,197.91404175758362
261,198.70304584503174
262,199.48705005645752
263,200.2620542049408
264,201.03405809402466
265,201.8060622215271
266,202.5660662651062
267,203.3280701637268
268,204.08307433128357
269,204.83307814598083
270,205.5700821876526
271,206.3190860748291
272,207.06608986854553
273,207.81709384918213
274,208.57809782028198
275,209.34210205078125
276,210.11810612678528
277,210.90111017227173
278,211.687114238739
279,212.47611832618713
280,213.26012253761292
281,214.0371265411377
282,214.80013060569763
283,215.55113458633423
284,216.29813861846924
285,217.03614234924316
286,217.76614618301392
287,218.50215005874634
288,219.24415397644043
289,219.98015785217285
290,220.7281618118286
291,221.47716569900513
292,222.2341697216034
293,222.9831738471985
294,223.73817777633667
295,224.48718166351318
296,225.23518562316895
297,225.97218942642212
298,226.70119333267212
299,227.42019701004028
300,228.13720083236694
301,228.8802046775818
302,229.60720872879028
303,230.34221243858337
304,231.0742163658142
305,231.81122016906738
306,232.55922412872314
307,233.31022810935974
308,234.0622320175171
309,234.8202359676361
310,235.57224011421204
311,236.31624388694763
312,237.05274772644043
313,237.78925156593323
314,238.5332555770874
315,239.28525948524475
316,240.0462634563446
317,240.8082675933838
318,241.56327152252197
319,242.3262755870819
320,243.07927942276
321,243.83628344535828
322,244.60828757286072
323,245.37029147148132
324,246.16629576683044
325,246.9452998638153
326,247.73330402374268
327,248.53330826759338
328,249.31831240653992
329,250.11231660842896
330,250.90532064437866
331,251.70032501220703
332,252.50632905960083
333,253.30033326148987
334,254.11333751678467
335,254.93434190750122
336,255.7403461933136
337,256.5623505115509
338,257.36535477638245
339,258.1753590106964
340,258.9883632659912
341,259.78036737442017
342,260.5793716907501
343,261.3803758621216
344,262.1753799915314
345,262.98138427734375
346,263.7793884277344
347,264.59539270401
348,265.3953969478607
349,266.2084012031555
350,267.02440547943115
351,267.8234097957611
352,268.6054139137268
353,269.40141797065735
354,270.2004222869873
355,270.99942660331726
356,271.7954306602478
357,272.57443475723267
358,273.36243891716003
359,274.15844321250916
360,274.9594473838806
361,275.7784516811371
362,276.57545590400696
363,277.37946009635925
364,278.1994643211365
365,279.01046872138977
366,279.8154728412628
367,280.6354773044586
368,281.4434814453125
369,282.24248576164246
370,283.0624899864197
371,283.884494304657
372,284.7064986228943
373,285.53450298309326
374,286.35850739479065
375,287.19751167297363
376,288.03551626205444
377,288.8605206012726
378,289.70152497291565
379,290.54152941703796
380,291.3925337791443
381,292.2235381603241
382,293.04054260253906
383,293.8805470466614
384,294.72155141830444
385,295.57955598831177
386,296.4445605278015
387,297.27856492996216
388,298.13556933403015
389,298.98457384109497
390,299.84557843208313
391,300.6955828666687
392,301.56458735466003
393,302.40259170532227
394,303.2605962753296
395,304.1246008872986
396,304.9976055622101
397,305.84960985183716
398,306.70061445236206
399,307.5656189918518
400,308.4386236667633
401,309.31462812423706
402,310.1706326007843
403,311.0166370868683
404,311.87564158439636
405,312.7376461029053
406,313.6156508922577
407,314.46565532684326
408,315.3266599178314
409,316.2026643753052
410,317.09066915512085
411,317.94567370414734
412,318.8156781196594
413,319.68668270111084
414,320.5606873035431
415,321.43469190597534
416,322.32969665527344
417,323.2347013950348
418,324.11570620536804
419,325.01271080970764
420,325.90371561050415
421,326.78372025489807
422,327.63772463798523
423,328.51372933387756
424,329.4047338962555
425,330.31173872947693
426,331.1837432384491
427,332.07174801826477
428,332.9697527885437
429,333.87675738334656
430,334.75376200675964
431,335.6507668495178
432,336.5557715892792
433,337.43477630615234
434,338.30978083610535
435,339.20278549194336
436,340.09979033470154
437,340.98779487609863
438,341.8487994670868
439,342.7458040714264
440,343.6528089046478
441,344.5408136844635
442,345.40981817245483
443,346.30482292175293
444,347.2128276824951
445,348.1278324127197
446,349.03483724594116
447,349.9528419971466
448,350.8788468837738
449,351.793851852417
450,352.6928565502167
451,353.5988612174988
452,354.49986600875854
453,355.3758707046509
454,356.2688753604889
455,357.1448800563812
456,358.01588463783264
457,358.91088914871216
458,359.8288941383362
459,360.7158987522125
460,361.6169035434723
461,362.54390835762024
462,363.4669132232666
463,364.3529179096222
464,365.24692249298096
465,366.1559274196625
466,367.06393218040466
467,367.93193674087524
468,368.83394145965576
469,369.74694633483887
470,370.67295122146606
471,371.56095576286316
472,372.474960565567
473,373.40396547317505
474,374.3289704322815
475,375.21597504615784
476,376.13297986984253
477,377.0499846935272
478,377.9579894542694
479,378.84099411964417
480,379.7529990673065
481,380.66400384902954
482,381.55300855636597
483,382.4380130767822
484,383.32301783561707
485,384.20002245903015
486,385.08802700042725
487,385.95703172683716
488,386.84503626823425
489,387.746041059494
490,388.64604568481445
491,389.555050611496
492,390.4570553302765
493,391.3420600891113
494,392.2430646419525
495,393.1430695056915
496,394.00507402420044
497,394.86507844924927
498,395.74208307266235
499,396.6210877895355
500,397.4890923500061
501,398.38909697532654
502,399.2811017036438
503,400.16410636901855
504,401.06811118125916
505,401.95811581611633
506,402.839120388031
507,403.74012517929077
508,404.6491301059723
509,405.541134595871
510,406.45813965797424
511,407.37114429473877
512,408.28114914894104
513,409.1801538467407
514,410.0861587524414
515,410.9921634197235
516,411.88116812705994
517,412.7951729297638
518,413.72017765045166
519,414.6591827869415
520,415.59918761253357
521,416.51819252967834
522,417.46419739723206
523,418.3942024707794
524,419.3312072753906
525,420.2762122154236
526,421.21321725845337
527,422.10822200775146
528,422.9952266216278
529,423.8762311935425
530,424.7092356681824
531,425.5342400074005
532,426.389244556427
533,427.26324915885925
534,428.1682538986206
535,429.07525849342346
536,429.98526334762573
537,430.906268119812
538,431.8322730064392
539,432.7272777557373
540,433.6242825984955
541,434.50028705596924
542,435.3812918663025
543,436.26229643821716
544,437.140300989151
545,438.02130579948425
546,438.90031027793884
547,439.78631496429443
548,440.6693196296692
549,441.50832414627075
550,442.36132860183716
551,443.1573326587677
552,443.97633695602417
553,444.75634121894836
554,445.5573453903198
555,446.32934951782227
556,447.1123535633087
557,447.88435769081116
558,448.6623616218567
559,449.43936586380005
560,450.21236991882324
561,450.99237394332886
562,451.7683780193329
563,452.54538202285767
564,453.32738614082336
565,454.1123902797699
566,454.88939452171326
567,455.68239855766296
568,456.476402759552
569,457.26840710639954
570,458.04641103744507
571,458.8224151134491
572,459.6044192314148
573,460.3864233493805
574,461.1684274673462
575,461.9394316673279
576,462.70943570137024
577,463.4814395904541
578,464.2594437599182
579,465.04244780540466
580,465.8284521102905
581,466.61245608329773
582,467.4024603366852
583,468.1874644756317
584,468.97246861457825
585,469.7574727535248
586,470.55247688293457
587,471.33848094940186
588,472.13148522377014
589,472.92048931121826
590,473.7064936161041
591,474.4874975681305
592,475.27350187301636
593,476.05750584602356
594,476.8455100059509
595,477.6315140724182
596,478.4225182533264
597,479.2155225276947
598,480.00752663612366
599,480.8065309524536
600,481.60953521728516
601,482.40253925323486
602,483.191543340683
603,483.9915475845337
604,484.7935519218445
605,485.6025562286377
606,486.41856050491333
607,487.21656465530396
608,488.010568857193
609,488.8055729866028
610,489.6125771999359
611,490.4235816001892
612,491.2355856895447
613,492.0545902252197
614,492.8755943775177
615,493.69659876823425
616,494.50760293006897
617,495.3216073513031
618,496.13761162757874
619,496.9456157684326
620,497.7456200122833
621,498.5466241836548
622,499.34562849998474
623,500.14363265037537
624,500.948637008667
625,501.74564123153687
626,502.5386452674866
627,503.35564970970154
628,504.17765402793884
629,505.0056583881378
630,505.8426628112793
631,506.6736669540405
632,507.4976713657379
633,508.3236758708954
634,509.1456801891327
635,509.9766845703125
636,510.806688785553
637,511.62569308280945
638,512.4606974124908
639,513.3227021694183
640,514.1947066783905
641,515.0387110710144
642,515.9077155590057
643,516.8117203712463
644,517.7427253723145
645,518.6567301750183
646,519.5307347774506
647,520.4367394447327
648,521.3447442054749
649,522.2097487449646
650,523.0937535762787
651,523.9747581481934
652,524.8337626457214
653,525.6997671127319
654,526.5797717571259
655,527.4667766094208
656,528.3367810249329
657,529.2287857532501
658,530.1187903881073
659,530.990795135498
660,531.8977997303009
661,532.8008046150208
662,533.6728091239929
663,534.5828139781952
664,535.4978187084198
665,536.3738234043121
666,537.2838282585144
667,538.2158331871033
668,539.1208379268646
669,540.0308425426483
670,540.9628474712372
671,541.8738522529602
672,542.7878570556641
673,543.7078619003296
674,544.6058666706085
675,545.4898715019226
676,546.394876241684
677,547.3008809089661
678,548.1818854808807
679,549.0958902835846
680,550.0328953266144
681,550.9449000358582
682,551.8829050064087
683,552.8419101238251
684,553.7709150314331
685,554.6949198246002
686,555.6109247207642
687,556.5019292831421
688,557.4249341487885
689,558.3649392127991
690,559.2849440574646
691,560.2409491539001
692,561.1939539909363
693,562.1419589519501
694,563.1109640598297
695,564.0639691352844
696,564.9799740314484
697,565.9299790859222
698,566.8569839000702
699,567.7559885978699
700,568.6969935894012
701,569.6279983520508
702,570.5300033092499
703,571.4850082397461
704,572.4450132846832
705,573.3660180568695
706,574.3340232372284
707,575.3140285015106
708,576.2700333595276
709,577.2200384140015
710,578.1810433864594
711,579.103048324585
712,580.0310533046722
713,580.9850583076477
714,581.8910629749298
715,582.8070678710938
716,583.746072769165
717,584.6760776042938
718,585.591082572937
719,586.5440874099731
720,587.4880924224854
721,588.4110972881317
722,589.368102312088
723,590.3261075019836
724,591.2561123371124
725,592.212117433548
726,593.1561222076416
727,594.0671269893646
728,595.0101320743561
729,595.9661371707916
730,596.8841419219971
731,597.8271470069885
732,598.7801518440247
733,599.7111568450928
734,600.6401617527008
735,601.6091668605804
736,602.5541718006134
737,603.4711766242981
738,604.4221816062927
739,605.3661866188049
740,606.2831914424896
741,607.2101962566376
742,608.1422011852264
743,609.0542058944702
744,609.9992110729218
745,610.9702160358429
746,611.8872208595276
747,612.8062257766724
748,613.7262306213379
749,614.6382353305817
750,615.5382401943207
751,616.4262447357178
752,617.3332495689392
753,618.2772545814514
754,619.2072594165802
755,620.1682643890381
756,621.1372694969177
757,622.0792746543884
758,623.0612797737122
759,624.0442848205566
760,624.9702897071838
761,625.9402949810028
762,626.9082999229431
763,627.8543050289154
764,628.8583102226257
765,629.8633155822754
766,630.8243205547333
767,631.8333258628845
768,632.8263311386108
769,633.786336183548
770,634.7843413352966
771,635.7753467559814
772,636.7303516864777
773,637.7393569946289
774,638.7343621253967
775,639.6903672218323
776,640.6863725185394
777,641.6833777427673
778,642.6353826522827
779,643.617388010025
780,644.6103930473328
781,645.5593981742859
782,646.553403377533
783,647.5394086837769
784,648.4904136657715
785,649.4674186706543
786,650.4414238929749
787,651.3854289054871
788,652.3614339828491
789,653.3324391841888
790,654.2734439373016
791,655.2454490661621
792,656.2164542675018
793,657.1494591236115
794,658.1004641056061
795,659.0474691390991
796,659.9804739952087
797,660.937479019165
798,661.8854839801788
799,662.7894887924194
800,663.6854934692383
801,664.6074984073639
802,665.5485033988953
803,666.4875082969666
804,667.4205131530762
805,668.3355181217194
806,669.2725229263306
807,670.2195279598236
808,671.1675329208374
809,672.107537984848
810,673.0575428009033
811,674.015547990799
812,674.9495527744293
813,675.8975577354431
814,676.8675630092621
815,677.8365681171417
816,678.8285732269287
817,679.819578409195
818,680.7905836105347
819,681.7795886993408
820,682.7685940265656
821,683.7125990390778
822,684.6976041793823
823,685.6916093826294
824,686.6466143131256
825,687.6296195983887
826,688.6296248435974
827,689.5866298675537
828,690.5766351222992
829,691.5666403770447
830,692.5336453914642
831,693.5266506671906
832,694.5126557350159
833,695.4876608848572
834,696.489666223526
835,697.4656713008881
836,698.4246764183044
837,699.4006814956665
838,700.3856866359711
839,701.3346917629242
840,702.3166968822479
841,703.2987020015717
842,704.2467069625854
843,705.2347123622894
844,706.2157175540924
845,707.1707224845886
846,708.1537275314331
847,709.1327328681946
848,710.0827376842499
849,711.0687429904938
850,712.05974817276
851,712.9947531223297
852,713.9597582817078
853,714.9387633800507
854,715.9017684459686
855,716.8367733955383
856,717.7867784500122
857,718.7237832546234
858,719.6727883815765
859,720.6407933235168
860,721.5767982006073
861,722.5108032226562
862,723.4688081741333
863,724.4418134689331
864,725.3868184089661
865,726.3568234443665
866,727.3398287296295
867,728.3188338279724
868,729.287838935852
869,730.2828440666199
870,731.2668492794037
871,732.2088541984558
872,733.1638593673706
873,734.1308643817902
874,735.1008694171906
875,736.0598745346069
876,737.0338797569275
877,738.0068848133087
878,738.9408895969391
879,739.9198949337006
880,740.91890001297
881,741.8749051094055
882,742.8539102077484
883,743.8439154624939
884,744.8309206962585
885,745.7769258022308
886,746.7609307765961
887,747.7659361362457
888,748.7609415054321
889,749.7469465732574
890,750.7529518604279
891,751.7529571056366
892,752.7159621715546
893,753.7099673748016
894,754.7219727039337
895,755.7029778957367
896,756.7279832363129
897,757.7659888267517
898,758.7489938735962
899,759.6979990005493
900,760.649003982544
901,761.555008649826
902,762.4400134086609
903,763.3220181465149
904,764.2430229187012
905,765.1990280151367
906,766.172033071518
907,767.166038274765
908,768.1600434780121
909,769.1040484905243
910,770.0490534305573
911,771.0080585479736
912,771.9570634365082
913,772.9190685749054
914,773.8840737342834
915,774.8230786323547
916,775.7540833950043
917,776.7170884609222
918,777.6970937252045
919,778.6920988559723
920,779.6911041736603
921,780.6771094799042
922,781.6281144618988
923,782.6141195297241
924,783.6021246910095
925,784.5881299972534
926,785.5711350440979
927,786.536140203476
928,787.4781451225281
929,788.4071500301361
930,789.3441550731659
931,790.2941601276398
932,791.2761652469635
933,792.2871704101562
934,793.2981758117676
935,794.2781810760498
936,795.2341859340668
937,796.2271912097931
938,797.2441966533661
939,798.2762019634247
940,799.3112075328827
941,800.2982127666473
942,801.3022179603577
943,802.3152232170105
944,803.3332285881042
945,804.3562340736389
946,805.3432393074036
947,806.3042442798615
948,807.2612493038177
949,808.2432544231415
950,809.2522597312927
951,810.2902653217316
952,811.3342707157135
953,812.3692762851715
954,813.3732814788818
955,814.3532867431641
956,815.3152916431427
957,816.2962968349457
958,817.289302110672
959,818.2983074188232
960,819.3233127593994
961,820.3523182868958
962,821.3693234920502
963,822.3573288917542
964,823.3133337497711
965,824.2953391075134
966,825.2883441448212
967,826.2983496189117
968,827.3303549289703
969,828.3473603725433
970,829.3153653144836
971,830.2613704204559
972,831.2183754444122
973,832.1873805522919
974,833.1643857955933
975,834.157390832901
976,835.1283960342407
977,836.0654008388519
978,836.9924058914185
979,837.9374108314514
980,838.8914158344269
981,839.8634209632874
982,840.8414261341095
983,841.7964310646057
984,842.7374360561371
985,843.6784410476685
986,844.6464462280273
987,845.6424512863159
988,846.6534566879272
989,847.6644620895386
990,848.6754672527313
991,849.6434724330902
992,850.5924773216248
993,851.5524823665619
994,852.5294876098633
995,853.5154929161072
996,854.5164980888367
997,855.5215034484863
998,856.490508556366
999,857.4415135383606
1000,858.4235186576843
1001,859.421523809433
1002,860.4305291175842
1003,861.4475345611572
1004,862.436539888382
1005,863.4255449771881
1006,864.3715498447418
1007,865.3215548992157
1008,866.2885601520538
1009,867.2655651569366
1010,868.2655704021454
1011,869.2655756473541
1012,870.269581079483
1013,871.2535862922668
1014,872.2215912342072
1015,873.1705963611603
1016,874.1386013031006
1017,875.1296064853668
1018,876.143611907959
1019,877.1616172790527
1020,878.1616225242615
1021,879.1296277046204
1022,880.0836327075958
1023,881.0596377849579
1024,882.0476429462433
1025,883.0416481494904
1026,884.0416533946991
1027,885.0326588153839
1028,885.9756636619568
1029,886.919668674469
1030,887.8996737003326
1031,888.8836789131165
1032,889.8786842823029
1033,890.8766894340515
1034,891.8316946029663
1035,892.7766995429993
1036,893.7377045154572
1037,894.723709821701
1038,895.7307150363922
1039,896.7587203979492
1040,897.7937259674072
1041,898.7957310676575
1042,899.774736404419
1043,900.7397413253784
1044,901.7337465286255
1045,902.7387518882751
1046,903.7457571029663
1047,904.7577624320984
1048,905.7327675819397
1049,906.678772687912
1050,907.64377784729
1051,908.6107828617096
1052,909.5897879600525
1053,910.5717930793762
1054,911.55579829216
1055,912.5098032951355
1056,913.447808265686
1057,914.3968133926392
1058,915.362818479538
1059,916.3528234958649
1060,917.3498287200928
1061,918.3518340587616
1062,919.346839427948
1063,920.3158445358276
1064,921.2488493919373
1065,922.1898543834686
1066,923.1278593540192
1067,924.0598640441895
1068,925.0038690567017
1069,925.960874080658
1070,926.9018790721893
1071,927.8138840198517
1072,928.7138886451721
1073,929.6378934383392
1074,930.5678985118866
1075,931.5209033489227
1076,932.4889085292816
1077,933.458913564682
1078,934.4319188594818
1079,935.3639235496521
1080,936.2809283733368
1081,937.2089333534241
1082,938.1489384174347
1083,939.0909433364868
1084,940.0199482440948
1085,940.9559531211853
1086,941.9039580821991
1087,942.8239629268646
1088,943.7689678668976
1089,944.738972902298
1090,945.7179782390594
1091,946.6969833374023
1092,947.6569883823395
1093,948.5909931659698
1094,949.5429983139038
1095,950.4900033473969
1096,951.4370083808899
1097,952.3880133628845
1098,953.3290181159973
1099,954.2420229911804
1100,955.1670279502869
1101,956.1120328903198
1102,957.0820379257202
1103,958.0560431480408
1104,959.0380482673645
1105,959.9930531978607
1106,960.9180581569672
1107,961.8600630760193
1108,962.8150682449341
1109,963.7770731449127
1110,964.7440783977509
1111,965.7230834960938
1112,966.662088394165
1113,967.5730931758881
1114,968.4720978736877
1115,969.400102853775
1116,970.3391077518463
1117,971.2981128692627
1118,972.2621178627014
1119,973.231122970581
1120,974.1971280574799
1121,975.1471331119537
1122,976.0721378326416
1123,976.9891426563263
1124,977.9321477413177
1125,978.9021527767181
1126,979.8891580104828
1127,980.8901631832123
1128,981.8851685523987
1129,982.8591737747192
1130,983.8101787567139
1131,984.76318359375
1132,985.7381887435913
1133,986.7231941223145
1134,987.7201993465424
1135,988.7162044048309
1136,989.6952097415924
1137,990.6472146511078
1138,991.6262197494507
1139,992.6072249412537
1140,993.5862300395966
1141,994.5722353458405
1142,995.5592405796051
1143,996.5282456874847
1144,997.4772505760193
1145,998.4562556743622
1146,999.447261095047
1147,1000.4502663612366
1148,1001.4622716903687
1149,1002.466276884079
1150,1003.4432821273804
1151,1004.4082870483398
1152,1005.3932921886444
1153,1006.3812975883484
1154,1007.3723027706146
1155,1008.3653080463409
1156,1009.3383131027222
1157,1010.2673180103302
1158,1011.1953227519989
1159,1012.142327785492
1160,1013.1053328514099
1161,1014.0803380012512
1162,1015.0523431301117
1163,1016.0313482284546
1164,1017.0033533573151
1165,1017.9273581504822
1166,1018.8453631401062
1167,1019.7813680171967
1168,1020.7163729667664
1169,1021.667377948761
1170,1022.6353831291199
1171,1023.6143882274628
1172,1024.5863933563232
1173,1025.5333983898163
1174,1026.463403224945
1175,1027.4114081859589
1176,1028.3614132404327
1177,1029.3244183063507
1178,1030.2964234352112
1179,1031.2664284706116
1180,1032.204433441162
1181,1033.1404383182526
1182,1034.099443435669
1183,1035.062448501587
1184,1036.0394535064697
1185,1037.0204586982727
1186,1037.9944639205933
1187,1038.9534690380096
1188,1039.8824739456177
1189,1040.8024787902832
1190,1041.750483751297
1191,1042.7194888591766
1192,1043.736494064331
1193,1044.7774996757507
1194,1045.8185050487518
1195,1046.8565106391907
1196,1047.844515800476
1197,1048.8315210342407
1198,1049.835526227951
1199,1050.845531463623
1200,1051.8505368232727
1201,1052.8525421619415
1202,1053.8285472393036
1203,1054.7665522098541
1204,1055.7035570144653
1205,1056.65656208992
1206,1057.6205673217773
1207,1058.5905723571777
1208,1059.5645773410797
1209,1060.5165824890137
1210,1061.4415872097015
1211,1062.3925924301147
1212,1063.3435974121094
1213,1064.292602300644
1214,1065.2456073760986
1215,1066.1926124095917
1216,1067.1166172027588
1217,1068.0126218795776
1218,1068.9076266288757
1219,1069.817631483078
1220,1070.746636390686
1221,1071.702641248703
1222,1072.6756465435028
1223,1073.664651632309
1224,1074.613656759262
1225,1075.5476615428925
1226,1076.5286667346954
1227,1077.5276720523834
1228,1078.517677307129
1229,1079.4836823940277
1230,1080.4446873664856
1231,1081.3746922016144
1232,1082.3266973495483
1233,1083.2897024154663
1234,1084.255707502365
1235,1085.2317125797272
1236,1086.2037177085876
1237,1087.1727228164673
1238,1088.1167278289795
1239,1089.0767328739166
1240,1090.0547380447388
1241,1091.0397431850433
1242,1092.042748451233
1243,1093.0307536125183
1244,1093.9897587299347
1245,1094.923763513565
1246,1095.8407683372498
1247,1096.7447731494904
1248,1097.6637780666351
1249,1098.5827827453613
1250,1099.519787788391
1251,1100.4617927074432
1252,1101.398797750473
1253,1102.3148024082184
1254,1103.2238073349
1255,1104.116811990738
1256,1105.0168166160583
1257,1105.9298214912415
1258,1106.8358261585236
1259,1107.747831106186
1260,1108.671835899353
1261,1109.5958406925201
1262,1110.53284573555
1263,1111.4538505077362
1264,1112.3328552246094
1265,1113.2388598918915
1266,1114.1218645572662
1267,1115.0258693695068
1268,1115.9788744449615
1269,1116.9658796787262
1270,1117.9328846931458
1271,1118.907889842987
1272,1119.9018950462341
1273,1120.9019002914429
1274,1121.8499052524567
1275,1122.7789101600647
1276,1123.6929149627686
1277,1124.6009197235107
1278,1125.5119245052338
1279,1126.4069292545319
1280,1127.314934015274
1281,1128.2299389839172
1282,1129.1509437561035
1283,1130.0499484539032
1284,1130.9779534339905
1285,1131.9259583950043
1286,1132.8929634094238
1287,1133.8849687576294
1288,1134.830973625183
1289,1135.8039786815643
1290,1136.7709839344025
1291,1137.7159888744354
1292,1138.6329936981201
1293,1139.5639984607697
1294,1140.492003440857
1295,1141.4040081501007
1296,1142.3220131397247
1297,1143.263018131256
1298,1144.208023071289
1299,1145.1210277080536
1300,1146.0690326690674
1301,1147.027037858963
1302,1147.9710428714752
1303,1148.937047958374
1304,1149.911052942276
1305,1150.8530578613281
1306,1151.826063156128
1307,1152.8030681610107
1308,1153.7550733089447
1309,1154.725078344345
1310,1155.7000834941864
1311,1156.6710886955261
1312,1157.616093635559
1313,1158.5850987434387
1314,1159.52610373497
1315,1160.4651086330414
1316,1161.42711353302
1317,1162.3831186294556
1318,1163.3141236305237
1319,1164.282128572464
1320,1165.2601337432861
1321,1166.2091388702393
1322,1167.1881439685822
1323,1168.1581490039825
1324,1169.1211540699005
1325,1170.1041593551636
1326,1171.0801644325256
1327,1172.073169708252
1328,1173.0801749229431
1329,1174.061180114746
1330,1175.0681853294373
1331,1176.0641906261444
1332,1177.0621960163116
1333,1178.0772013664246
1334,1179.078206539154
1335,1180.077211856842
1336,1181.1082172393799
1337,1182.1262226104736
1338,1183.1092276573181
1339,1184.1122331619263
1340,1185.076238155365
1341,1186.0602433681488
1342,1187.0532486438751
1343,1188.0402536392212
1344,1189.013258934021
1345,1190.0152640342712
1346,1190.9982693195343
1347,1191.9602744579315
1348,1192.938279390335
1349,1193.9132845401764
1350,1194.8362894058228
1351,1195.7782945632935
1352,1196.745299577713
1353,1197.7133045196533
1354,1198.6973097324371
1355,1199.6863150596619
1356,1200.6533200740814
1357,1201.6503252983093
1358,1202.642330646515
1359,1203.620335817337
1360,1204.6163408756256
1361,1205.6123461723328
1362,1206.60835146904
1363,1207.566356420517
1364,1208.560361623764
1365,1209.561367034912
1366,1210.5333721637726
1367,1211.5383775234222
1368,1212.549382686615
1369,1213.5453879833221
1370,1214.560393333435
1371,1215.5663986206055
1372,1216.5314037799835
1373,1217.519408941269
1374,1218.515414237976
1375,1219.4774191379547
1376,1220.4834244251251
1377,1221.4934298992157
1378,1222.4824349880219
1379,1223.4884402751923
1380,1224.4964456558228
1381,1225.4654507637024
1382,1226.4644560813904
1383,1227.4594612121582
1384,1228.409466266632
1385,1229.386471271515
1386,1230.371476650238
1387,1231.3524816036224
1388,1232.3004868030548
1389,1233.2774918079376
1390,1234.2514970302582
1391,1235.210501909256
1392,1236.2015073299408
1393,1237.1995124816895
1394,1238.1725175380707
1395,1239.1715228557587
1396,1240.1605281829834
1397,1241.1105329990387
1398,1242.08753824234
1399,1243.0735433101654
1400,1244.0465486049652
1401,1245.0405538082123
1402,1246.042559146881
1403,1247.0045640468597
1404,1247.9785692691803
1405,1248.9515743255615
1406,1249.8805792331696
1407,1250.834584236145
1408,1251.799589395523
1409,1252.7355942726135
1410,1253.7015993595123
1411,1254.672604560852
1412,1255.6096093654633
1413,1256.564614534378
1414,1257.5176193714142
1415,1258.454624414444
1416,1259.412629365921
1417,1260.3896346092224
1418,1261.3736398220062
1419,1262.3516449928284
1420,1263.3616502285004
1421,1264.3946557044983
1422,1265.3936607837677
1423,1266.3946661949158
1424,1267.398671388626
1425,1268.3886766433716
1426,1269.3536818027496
1427,1270.3556869029999
1428,1271.3496923446655
1429,1272.303697347641
1430,1273.2857024669647
1431,1274.2747075557709
1432,1275.2377126216888
1433,1276.2457180023193
1434,1277.2557232379913
1435,1278.247728586197
1436,1279.2807340621948
1437,1280.287739276886
1438,1281.2807445526123
1439,1282.2927498817444
1440,1283.2987551689148
1441,1284.2677602767944
1442,1285.2567653656006
1443,1286.2147705554962
1444,1287.139775276184
1445,1288.0817804336548
1446,1289.018785238266
1447,1289.9327900409698
1448,1290.8677949905396
1449,1291.7977998256683
1450,1292.7128047943115
1451,1293.6478097438812
1452,1294.5658144950867
1453,1295.4778192043304
1454,1296.4188241958618
1455,1297.3478291034698
1456,1298.2848341464996
1457,1299.231838941574
1458,1300.1558439731598
1459,1301.1038489341736
1460,1302.0518538951874
1461,1302.973858833313
1462,1303.9098637104034
1463,1304.8258683681488
1464,1305.7148730754852
1465,1306.6278779506683
1466,1307.546882867813
1467,1308.4258873462677
1468,1309.3278920650482
1469,1310.2198967933655
1470,1311.097901582718
1471,1311.990906238556
1472,1312.8919110298157
1473,1313.7879157066345
1474,1314.7039203643799
1475,1315.5799250602722
1476,1316.5029299259186
1477,1317.4109346866608
1478,1318.2949392795563
1479,1319.195944070816
1480,1320.095948934555
1481,1320.973953485489
1482,1321.8769581317902
1483,1322.7659628391266
1484,1323.6509675979614
1485,1324.5489723682404
1486,1325.416976928711
1487,1326.293981552124
1488,1327.1829862594604
1489,1328.050990819931
1490,1328.9509954452515
1491,1329.8570001125336
1492,1330.7410049438477
1493,1331.6610097885132
1494,1332.573014497757
1495,1333.4830193519592
1496,1334.4100241661072
1497,1335.311028957367
1498,1336.2310338020325
1499,1337.1550385951996
1500,1338.046043395996
1501,1338.9670481681824
1502,1339.866052865982
1503,1340.7530574798584
1504,1341.6650624275208
1505,1342.570067167282
1506,1343.4690718650818
1507,1344.390076637268
1508,1345.3030815124512
1509,1346.215086221695
1510,1347.1420912742615
1511,1348.060096025467
1512,1348.9821009635925
1513,1349.9331059455872
1514,1350.8621108531952
1515,1351.7801156044006
1516,1352.726120710373
1517,1353.6511254310608
1518,1354.5571303367615
1519,1355.4761350154877
1520,1356.3821399211884
1521,1357.281144618988
1522,1358.2121493816376
1523,1359.1281542778015
1524,1360.017158985138
1525,1360.9331638813019
1526,1361.8351686000824
1527,1362.714173078537
1528,1363.62717795372
1529,1364.5491828918457
1530,1365.4491875171661
1531,1366.3791925907135
1532,1367.3201973438263
1533,1368.2182021141052
1534,1369.1432070732117
1535,1370.0652117729187
1536,1370.9472165107727
1537,1371.8622212409973
1538,1372.7712261676788
1539,1373.6532306671143
1540,1374.5812356472015
1541,1375.4952404499054
1542,1376.3912451267242
1543,1377.3202500343323
1544,1378.2442548274994
1545,1379.1492598056793
1546,1380.0862646102905
1547,1381.0142695903778
1548,1381.92027425766
1549,1382.8552792072296
1550,1383.7742841243744
1551,1384.6702888011932
1552,1385.595293521881
1553,1386.5152983665466
1554,1387.4103031158447
1555,1388.3353080749512
1556,1389.244312763214
1557,1390.1453175544739
1558,1391.0573225021362
1559,1391.946326971054
1560,1392.8533318042755
1561,1393.757336616516
1562,1394.6343412399292
1563,1395.5413460731506
1564,1396.4453506469727
1565,1397.3283553123474
1566,1398.232360124588
1567,1399.1283648014069
1568,1400.0223696231842
1569,1400.9223742485046
1570,1401.811378955841
1571,1402.7063837051392
1572,1403.6033883094788
1573,1404.4863929748535
1574,1405.3743977546692
1575,1406.2744023799896
1576,1407.152407169342
1577,1408.0694119930267
1578,1408.9984169006348
1579,1409.8954215049744
1580,1410.8344264030457
1581,1411.7704315185547
1582,1412.6714360713959
1583,1413.6014411449432
1584,1414.5254459381104
1585,1415.4214506149292
1586,1416.3374555110931
1587,1417.2474603652954
1588,1418.139464855194
1589,1419.0564696788788
1590,1419.9594745635986
1591,1420.869479417801
1592,1421.8034842014313
1593,1422.709489107132
1594,1423.6324939727783
1595,1424.565498828888
1596,1425.4645035266876
1597,1426.405508518219
1598,1427.3425133228302
1599,1428.2625181674957
1600,1429.1965231895447
1601,1430.1125280857086
1602,1431.0315327644348
1603,1431.9605376720428
1604,1432.8535423278809
1605,1433.7635471820831
1606,1434.6705520153046
1607,1435.5535566806793
1608,1436.4625613689423
1609,1437.3785662651062
1610,1438.2635707855225
1611,1439.183575630188
1612,1440.119580745697
1613,1441.0215854644775
1614,1441.9435901641846
1615,1442.8605949878693
1616,1443.7495996952057
1617,1444.6676046848297
1618,1445.5876095294952
1619,1446.4886140823364
1620,1447.4046189785004
1621,1448.3296239376068
1622,1449.2266285419464
1623,1450.1396334171295
1624,1451.0536382198334
1625,1451.9456429481506
1626,1452.866647720337
1627,1453.7766525745392
1628,1454.677657365799
1629,1455.601662158966
1630,1456.5146670341492
1631,1457.4156715869904
1632,1458.339676618576
1633,1459.2576813697815
1634,1460.1526861190796
1635,1461.0616908073425
1636,1461.9786956310272
1637,1462.8597004413605
1638,1463.7677052021027
1639,1464.6777098178864
1640,1465.560714483261
1641,1466.476719379425
1642,1467.3997242450714
1643,1468.2927289009094
1644,1469.2157337665558
1645,1470.130738735199
1646,1471.0287432670593
1647,1471.9517481327057
1648,1472.8677530288696
1649,1473.7687578201294
1650,1474.6947627067566
1651,1475.6187674999237
1652,1476.5187723636627
1653,1477.4427771568298
1654,1478.352782011032
1655,1479.2357864379883
1656,1480.1387913227081
1657,1481.0427961349487
1658,1481.929800748825
1659,1482.8418054580688
1660,1483.7508103847504
1661,1484.6508150100708
1662,1485.574819803238
1663,1486.4868247509003
1664,1487.3828294277191
1665,1488.298834323883
1666,1489.2008390426636
1667,1490.0888435840607
1668,1490.9948484897614
1669,1491.891853094101
1670,1492.7708578109741
1671,1493.6728625297546
1672,1494.5858674049377
1673,1495.4818720817566
1674,1496.4058768749237
1675,1497.3298819065094
1676,1498.2388865947723
1677,1499.1688914299011
1678,1500.0868964195251
1679,1500.9789009094238
1680,1501.8959057331085
1681,1502.7999105453491
1682,1503.6819152832031
1683,1504.6049201488495
1684,1505.522924900055
1685,1506.4269297122955
1686,1507.364934682846
1687,1508.2959394454956
1688,1509.189944267273
1689,1510.100949048996
1690,1510.9859535694122
1691,1511.8659582138062
1692,1512.7599630355835
1693,1513.6529676914215
1694,1514.5349724292755
1695,1515.434977054596
1696,1516.3319818973541
1697,1517.2269866466522
1698,1518.1469914913177
1699,1519.0529961585999
1700,1519.943000793457
1701,1520.857005596161
1702,1521.765010356903
1703,1522.6490151882172
1704,1523.5620198249817
1705,1524.4650247097015
1706,1525.3420293331146
1707,1526.2460339069366
1708,1527.1440386772156
1709,1528.0230433940887
1710,1528.9230480194092
1711,1529.8160529136658
1712,1530.696057319641
1713,1531.5900621414185
1714,1532.4690668582916
1715,1533.3410713672638
1716,1534.231076002121
1717,1535.1160807609558
1718,1535.9920852184296
1719,1536.8890900611877
1720,1537.7770946025848
1721,1538.6500992774963
1722,1539.551104068756
1723,1540.449108839035
1724,1541.3271133899689
1725,1542.2231180667877
1726,1543.1121227741241
1727,1543.9911274909973
1728,1544.8911321163177
1729,1545.7921369075775
1730,1546.6771416664124
1731,1547.5861463546753
1732,1548.4841511249542
1733,1549.3641557693481
1734,1550.2661604881287
1735,1551.1621651649475
1736,1552.0401697158813
1737,1552.9351744651794
1738,1553.8221790790558
1739,1554.6941838264465
1740,1555.594188451767
1741,1556.4901931285858
1742,1557.3591978549957
1743,1558.2712025642395
1744,1559.1712074279785
1745,1560.050211906433
1746,1560.9632167816162
1747,1561.8712215423584
1748,1562.757226228714
1749,1563.668231010437
1750,1564.5762357711792
1751,1565.4662404060364
1752,1566.370245218277
1753,1567.2802500724792
1754,1568.161254644394
1755,1569.072259426117
1756,1569.972264289856
1757,1570.858268737793
1758,1571.769273519516
1759,1572.6752784252167
1760,1573.5592830181122
1761,1574.4772880077362
1762,1575.3772926330566
1763,1576.2652974128723
1764,1577.182302236557
1765,1578.0943069458008
1766,1578.9873116016388
1767,1579.908316373825
1768,1580.8213212490082
1769,1581.719326019287
1770,1582.6413309574127
1771,1583.5633356571198
1772,1584.4543404579163
1773,1585.3783452510834
1774,1586.2943501472473
1775,1587.198354959488
1776,1588.117359638214
1777,1589.015364408493
1778,1589.9223692417145
1779,1590.8313739299774
1780,1591.717378616333
1781,1592.612383365631
1782,1593.521388053894
1783,1594.401392698288
1784,1595.2953975200653
1785,1596.2034022808075
1786,1597.0914068222046
1787,1597.9764115810394
1788,1598.87841629982
1789,1599.7694211006165
1790,1600.6464257240295
1791,1601.5434303283691
1792,1602.4484350681305
1793,1603.334439754486
1794,1604.245444536209
1795,1605.1634495258331
1796,1606.0564541816711
1797,1606.9694588184357
1798,1607.8754637241364
1799,1608.758468389511
1800,1609.6664731502533
1801,1610.565477848053
1802,1611.4464824199677
1803,1612.3484871387482
1804,1613.238492012024
1805,1614.1224966049194
1806,1615.0185012817383
1807,1615.919506072998
1808,1616.8075106143951
1809,1617.7145154476166
1810,1618.6135201454163
1811,1619.4895248413086
1812,1620.39452958107
1813,1621.3015344142914
1814,1622.1835389137268
1815,1623.0925438404083
1816,1624.0115485191345
1817,1624.9015533924103
1818,1625.8125581741333
1819,1626.722562789917
1820,1627.586567401886
1821,1628.448571920395
1822,1629.3115766048431
1823,1630.1835811138153
1824,1631.0565857887268
1825,1631.912590265274
1826,1632.7955949306488
1827,1633.6815996170044
1828,1634.560604095459
1829,1635.4506087303162
1830,1636.3206133842468
1831,1637.2116181850433
1832,1638.1096229553223
1833,1639.0046274662018
1834,1639.8826322555542
1835,1640.7806367874146
1836,1641.6906416416168
1837,1642.582646369934
1838,1643.4816510677338
1839,1644.3936560153961
1840,1645.2856605052948
1841,1646.1916654109955
1842,1647.1006700992584
1843,1647.991674900055
1844,1648.9016797542572
1845,1649.8346846103668
1846,1650.7496893405914
1847,1651.6966943740845
1848,1652.6396992206573
1849,1653.5687041282654
1850,1654.2587077617645
1851,1655.289713382721
1852,1656.2047181129456
1853,1657.1377229690552
1854,1658.069727897644
1855,1658.985732793808
1856,1659.8907375335693
1857,1660.823742389679
1858,1661.7647473812103
1859,1662.6697521209717
1860,1663.613757133484
1861,1664.5567619800568
1862,1665.482766866684
1863,1666.4217717647552
1864,1667.363776922226
1865,1668.2787816524506
1866,1669.2117865085602
1867,1670.14879155159
1868,1671.0457961559296
1869,1671.9738011360168
1870,1672.9038059711456
1871,1673.8068108558655
1872,1674.7288155555725
1873,1675.6558203697205
1874,1676.5588252544403
1875,1677.4788300991058
1876,1678.4058349132538
1877,1679.3008396625519
1878,1680.211844444275
1879,1681.108849287033
1880,1681.9928538799286
1881,1682.8958585262299
1882,1683.7958633899689
1883,1684.6948680877686
1884,1685.60187292099
1885,1686.510877609253
1886,1687.4278824329376
1887,1688.3538873195648
1888,1689.2678921222687
1889,1690.1818969249725
1890,1691.101901769638
1891,1692.0149066448212
1892,1692.9019112586975
1893,1693.8139159679413
1894,1694.7319209575653
1895,1695.6369256973267
1896,1696.570930480957
1897,1697.4989354610443
1898,1698.4309403896332
1899,1699.3749454021454
1900,1700.3089501857758
1901,1701.2219550609589
1902,1702.1499600410461
1903,1703.0669648647308
1904,1703.9669694900513
1905,1704.8829743862152
1906,1705.8089792728424
1907,1706.7199840545654
1908,1707.6459889411926
1909,1708.5699937343597
1910,1709.4789984226227
1911,1710.4000034332275
1912,1711.2930080890656
1913,1712.1870126724243
1914,1713.0580172538757
1915,1713.957022190094
1916,1714.861026763916
1917,1715.7470314502716
1918,1716.6490361690521
1919,1717.557041168213
1920,1718.44704580307
1921,1719.340050458908
1922,1720.249055147171
1923,1721.1550600528717
1924,1722.0370645523071
1925,1722.9500694274902
1926,1723.867074251175
1927,1724.7830791473389
1928,1725.730084180832
1929,1726.6920890808105
1930,1727.6210939884186
1931,1728.5870990753174
1932,1729.558104276657
1933,1730.4921090602875
1934,1731.4471142292023
1935,1732.4201192855835
1936,1733.3791244029999
1937,1734.3101291656494
1938,1735.2631342411041
1939,1736.2201392650604
1940,1737.1391441822052
1941,1738.0801491737366
1942,1738.9841537475586
1943,1739.85715842247
1944,1740.7521631717682
1945,1741.635167837143
1946,1742.5431725978851
1947,1743.4721775054932
1948,1744.420182466507
1949,1745.383187532425
1950,1746.3571927547455
1951,1747.3391978740692
1952,1748.2832028865814
1953,1749.2042076587677
1954,1750.1652126312256
1955,1751.155217885971
1956,1752.1112229824066
1957,1753.0532279014587
1958,1753.9822328090668
1959,1754.8972375392914
1960,1755.8112423419952
1961,1756.7242472171783
1962,1757.6342520713806
1963,1758.5432567596436
1964,1759.4202613830566
1965,1760.3262662887573
1966,1761.2482709884644
1967,1762.1872758865356
1968,1763.135281085968
1969,1764.0552859306335
1970,1765.0032908916473
1971,1765.9272956848145
1972,1766.84730052948
1973,1767.7213051319122
1974,1768.615309715271
1975,1769.5123145580292
1976,1770.4383194446564
1977,1771.38432431221
1978,1772.2933292388916
1979,1773.2383341789246
1980,1774.2003393173218
1981,1775.124344110489
1982,1776.0633490085602
1983,1777.0023539066315
1984,1777.893358707428
1985,1778.8093633651733
1986,1779.7323682308197
1987,1780.6183729171753
1988,1781.5463778972626
1989,1782.4813828468323
1990,1783.380387544632
1991,1784.3103923797607
1992,1785.2293972969055
1993,1786.1304020881653
1994,1787.0624070167542
1995,1788.0024118423462
1996,1788.9154167175293
1997,1789.8624217510223
1998,1790.8074266910553
1999,1791.7214314937592
2000,1792.6674363613129
2001,1793.6064412593842
2002,1794.5284461975098
2003,1795.474451303482
2004,1796.4004561901093
2005,1797.3064608573914
2006,1798.2154655456543
2007,1799.10147023201
2008,1799.9994750022888
2009,1800.8884797096252
2010,1801.7654843330383
2011,1802.6764891147614
2012,1803.5814938545227
2013,1804.4564983844757
2014,1805.3675031661987
2015,1806.266508102417
2016,1807.146512746811
2017,1808.057517528534
2018,1808.963522195816
2019,1809.8325266838074
2020,1810.7195315361023
2021,1811.5865359306335
2022,1812.4365406036377
2023,1813.3025450706482
2024,1814.1655495166779
2025,1815.0225541591644
2026,1815.9005587100983
2027,1816.752563238144
2028,1817.629567861557
2029,1818.50457239151
2030,1819.3545768260956
2031,1820.2285814285278
2032,1821.0825860500336
2033,1821.9365904331207
2034,1822.7775948047638
2035,1823.6075992584229
2036,1824.4516036510468
2037,1825.2796080112457
2038,1826.126612663269
2039,1826.9536168575287
2040,1827.7946212291718
2041,1828.6356258392334
2042,1829.4666302204132
2043,1830.2996344566345
2044,1831.1156387329102
2045,1831.9506433010101
2046,1832.7646474838257
2047,1833.5876517295837
2048,1834.4236562252045
2049,1835.23966050148
2050,1836.07266497612
2051,1836.9176692962646
2052,1837.7356736660004
2053,1838.5836780071259
2054,1839.4146823883057
2055,1840.2486867904663
2056,1841.084691286087
2057,1841.917695760727
2058,1842.7727000713348
2059,1843.6187045574188
2060,1844.4967093467712
2061,1845.3737139701843
2062,1846.2587184906006
2063,1847.1587233543396
2064,1848.0317277908325
2065,1848.920732498169
2066,1849.8077371120453
2067,1850.6587417125702
2068,1851.552746295929
2069,1852.436751127243
2070,1853.2947554588318
2071,1854.1817603111267
2072,1855.0817649364471
2073,1855.9447696208954
2074,1856.841774225235
2075,1857.741779088974
2076,1858.6097836494446
2077,1859.5137882232666
2078,1860.4037930965424
2079,1861.268797636032
2080,1862.1448020935059
2081,1863.003806591034
2082,1863.8938114643097
2083,1864.7848160266876
2084,1865.6508204936981
2085,1866.5418252944946
2086,1867.4248299598694
2087,1868.3038346767426
2088,1869.203839302063
2089,1870.0768439769745
2090,1870.9708485603333
2091,1871.8498532772064
2092,1872.728857755661
2093,1873.6248626708984
2094,1874.487867116928
2095,1875.3938717842102
2096,1876.2958767414093
2097,1877.176881313324
2098,1878.0948860645294
2099,1878.99689078331
2100,1879.9128956794739
2101,1880.8109004497528
2102,1881.6969051361084
2103,1882.5919098854065
2104,1883.4549143314362
2105,1884.3439190387726
2106,1885.2289235591888
2107,1886.1009283065796
2108,1887.0019330978394
2109,1887.8839375972748
2110,1888.7849423885345
2111,1889.686947107315
2112,1890.5529515743256
2113,1891.4509563446045
2114,1892.3279609680176
2115,1893.2119657993317
2116,1894.1059703826904
2117,1894.993975162506
2118,1895.8839797973633
2119,1896.782984495163
2120,1897.664989233017
2121,1898.5839939117432
2122,1899.4919986724854
2123,1900.378003358841
2124,1901.2750082015991
2125,1902.1590127944946
2126,1903.0340173244476
2127,1903.9080219268799
2128,1904.7620265483856
2129,1905.633031129837
2130,1906.4880356788635
2131,1907.3600401878357
2132,1908.2350447177887
2133,1909.0920493602753
2134,1909.9690539836884
2135,1910.8420584201813
2136,1911.7050631046295
2137,1912.576067686081
2138,1913.435072183609
2139,1914.2950766086578
2140,1915.1340811252594
2141,1915.9850854873657
2142,1916.8330900669098
2143,1917.671094417572
2144,1918.5400989055634
2145,1919.410103559494
2146,1920.287108182907
2147,1921.1751129627228
2148,1922.0281174182892
2149,1922.9051220417023
2150,1923.770126581192
2151,1924.62913107872
2152,1925.5001356601715
2153,1926.3561401367188
2154,1927.232144832611
2155,1928.089149236679
2156,1928.9481537342072
2157,1929.8061583042145
2158,1930.6351625919342
2159,1931.4771671295166
2160,1932.314171552658
2161,1933.1511759757996
2162,1933.988180398941
2163,1934.81418466568
2164,1935.6471891403198
2165,1936.4641933441162
2166,1937.3071978092194
2167,1938.1552021503448
2168,1938.985206604004
2169,1939.8362112045288
2170,1940.685215473175
2171,1941.5272200107574
2172,1942.3862245082855
2173,1943.2322289943695
2174,1944.0972335338593
2175,1944.964238166809
2176,1945.8172426223755
2177,1946.69624710083
2178,1947.5802519321442
2179,1948.4522564411163
2180,1949.3422610759735
2181,1950.244265794754
2182,1951.1252706050873
2183,1952.0202753543854
2184,1952.8892798423767
2185,1953.779284477234
2186,1954.6592891216278
2187,1955.5222935676575
2188,1956.4042983055115
2189,1957.261302947998
2190,1958.150307416916
2191,1959.027312040329
2192,1959.9183168411255
2193,1960.8083214759827
2194,1961.6963262557983
2195,1962.5923309326172
2196,1963.454335451126
2197,1964.3383400440216
2198,1965.2153446674347
2199,1966.0773491859436
2200,1966.9403538703918
2201,1967.7743582725525
2202,1968.6333627700806
2203,1969.481367111206
2204,1970.3463716506958
2205,1971.1963760852814
2206,1972.0403807163239
2207,1972.8983850479126
2208,1973.7433896064758
2209,1974.6013941764832
2210,1975.474398612976
2211,1976.3194031715393
2212,1977.1944077014923
2213,1978.069412469864
2214,1978.9384169578552
2215,1979.8284215927124
2216,1980.7214262485504
2217,1981.607430934906
2218,1982.5104358196259
2219,1983.384440422058
2220,1984.2784450054169
2221,1985.1654496192932
2222,1986.0284543037415
2223,1986.912458896637
2224,1987.7954635620117
2225,1988.6704680919647
2226,1989.5594727993011
2227,1990.4254775047302
2228,1991.3104820251465
2229,1992.1804866790771
2230,1993.0484912395477
2231,1993.9114956855774
2232,1994.7665002346039
2233,1995.638504743576
2234,1996.4855093955994
2235,1997.3545138835907
2236,1998.2175183296204
2237,1999.0735230445862
2238,1999.9545276165009
2239,2000.844532251358
2240,2001.7255368232727
2241,2002.6255416870117
2242,2003.4935462474823
2243,2004.3685507774353
2244,2005.2395553588867
2245,2006.0825598239899
2246,2006.9475643634796
2247,2007.805568933487
2248,2008.6535732746124
2249,2009.5295779705048
2250,2010.416582584381
2251,2011.3105874061584
2252,2012.2345921993256
2253,2013.1565971374512
2254,2014.0716018676758
2255,2014.9916067123413
2256,2015.8866114616394
2257,2016.806616306305
2258,2017.712620973587
2259,2018.6006257534027
2260,2019.510630607605
2261,2020.4076352119446
2262,2021.2936398983002
2263,2022.187644481659
2264,2023.0836493968964
2265,2023.9496538639069
2266,2024.8386585712433
2267,2025.7076630592346
2268,2026.5876677036285
2269,2027.4796724319458
2270,2028.353677034378
2271,2029.2596819400787
2272,2030.1546864509583
2273,2031.057691335678
2274,2031.9726960659027
2275,2032.8757009506226
2276,2033.791705608368
2277,2034.706710577011
2278,2035.613715171814
2279,2036.5327200889587
2280,2037.4217247962952
2281,2038.3457295894623
2282,2039.2507343292236
2283,2040.1487390995026
2284,2041.0527439117432
2285,2041.9437487125397
2286,2042.8347532749176
2287,2043.7197580337524
2288,2044.5767624378204
2289,2045.4487669467926
2290,2046.3177716732025
2291,2047.188776254654
2292,2048.0887808799744
2293,2048.9787855148315
2294,2049.856790304184
2295,2050.7507948875427
2296,2051.6337995529175
2297,2052.5128042697906
2298,2053.3958089351654
2299,2054.2538135051727
2300,2055.1268179416656
2301,2055.9938225746155
2302,2056.8578271865845
2303,2057.738831758499
2304,2058.6108362674713
2305,2059.495841026306
2306,2060.3828456401825
2307,2061.2418501377106
2308,2062.1228547096252
2309,2062.9968593120575
2310,2063.864863872528
2311,2064.7558686733246
2312,2065.6208732128143
2313,2066.50687789917
2314,2067.404882669449
2315,2068.276887178421
2316,2069.1748919487
2317,2070.0618965625763
2318,2070.949901342392
2319,2071.855906009674
2320,2072.7319107055664
2321,2073.6189153194427
2322,2074.5029199123383
2323,2075.359924554825
2324,2076.2389290332794
2325,2077.111933708191
2326,2077.9819383621216
2327,2078.865942955017
2328,2079.730947494507
2329,2080.6169521808624
2330,2081.5019569396973
2331,2082.3689613342285
2332,2083.2509660720825
2333,2084.118970632553
2334,2085.017975330353
2335,2085.917979955673
2336,2086.802984714508
2337,2087.703989505768
2338,2088.5669939517975
2339,2089.441998720169
2340,2090.2930030822754
2341,2091.1510076522827
2342,2091.994012117386
2343,2092.830016374588
2344,2093.673020839691
2345,2094.4980251789093
2346,2095.3360295295715
2347,2096.1610341072083
2348,2096.9920382499695
2349,2097.8450429439545
2350,2098.6880474090576
2351,2099.52605175972
2352,2100.383056163788
2353,2101.2350606918335
2354,2102.0840651988983
2355,2102.9600698947906
2356,2103.829074382782
2357,2104.6970789432526
2358,2105.5800836086273
2359,2106.447088241577
2360,2107.325092792511
2361,2108.1940972805023
2362,2109.0561017990112
2363,2109.9401066303253
2364,2110.8221111297607
2365,2111.696115732193
2366,2112.5851204395294
2367,2113.45112490654
2368,2114.3341295719147
2369,2115.213134288788
2370,2116.077138900757
2371,2116.95414352417
2372,2117.821147918701
2373,2118.711152791977
2374,2119.600157260895
2375,2120.4641618728638
2376,2121.3731667995453
2377,2122.259171485901
2378,2123.12117600441
2379,2123.9861805438995
2380,2124.8461849689484
2381,2125.7021894454956
2382,2126.541193962097
2383,2127.386198282242
2384,2128.2582030296326
2385,2129.106207370758
2386,2129.9922120571136
2387,2130.8902168273926
2388,2131.772221326828
2389,2132.6802263259888
2390,2133.5822310447693
2391,2134.4512355327606
2392,2135.353240251541
2393,2136.2602450847626
2394,2137.1392498016357
2395,2138.0432543754578
2396,2138.95325922966
2397,2139.8292639255524
2398,2140.747268676758
2399,2141.6842737197876
2400,2142.5942783355713
2401,2143.5252833366394
2402,2144.45928812027
2403,2145.361293077469
2404,2146.287297964096
2405,2147.217302799225
2406,2148.1173074245453
2407,2149.037312269211
2408,2149.9623172283173
2409,2150.8553218841553
2410,2151.77232670784
2411,2152.6913316249847
2412,2153.579336166382
2413,2154.4643409252167
2414,2155.3573455810547
2415,2156.254350423813
2416,2157.158354997635
2417,2158.0303597450256
2418,2158.9243643283844
2419,2159.8193690776825
2420,2160.706373691559
2421,2161.6083784103394
2422,2162.509383201599
2423,2163.387387752533
2424,2164.2993927001953
2425,2165.2283976078033
2426,2166.1474022865295
2427,2167.0824072360992
2428,2168.016412258148
2429,2168.9394171237946
2430,2169.860421895981
2431,2170.799426794052
2432,2171.698431491852
2433,2172.6174364089966
2434,2173.5484414100647
2435,2174.4494462013245
2436,2175.3274507522583
2437,2176.2354555130005
2438,2177.1594603061676
2439,2178.0864651203156
2440,2178.9844698905945
2441,2179.909474849701
2442,2180.8444797992706
2443,2181.7594845294952
2444,2182.6794893741608
2445,2183.610494375229
2446,2184.5354990959167
2447,2185.424503803253
2448,2186.3345086574554
2449,2187.2275133132935
2450,2188.08251786232
2451,2188.923522233963
2452,2189.792526960373
2453,2190.64653134346
2454,2191.497535943985
2455,2192.3585402965546
2456,2193.2735452651978
2457,2194.1865499019623
2458,2195.0995547771454
2459,2196.0225596427917
2460,2196.9315643310547
2461,2197.8485691547394
2462,2198.7635741233826
2463,2199.6745789051056
2464,2200.576583623886
2465,2201.4785883426666
2466,2202.347592830658
2467,2203.215597629547
2468,2204.075602054596
2469,2204.949606657028
2470,2205.7976109981537
2471,2206.6776156425476
2472,2207.5576202869415
2473,2208.433624982834
2474,2209.290629386902
2475,2210.172634124756
2476,2211.0766389369965
2477,2211.978643655777
2478,2212.8806483745575
2479,2213.815653324127
2480,2214.7526581287384
2481,2215.676663160324
2482,2216.618668079376
2483,2217.5576729774475
2484,2218.4716777801514
2485,2219.3896827697754
2486,2220.317687511444
2487,2221.2196922302246
2488,2222.128697156906
2489,2223.04070186615
2490,2223.938706636429
2491,2224.8637113571167
2492,2225.7857162952423
2493,2226.718721151352
2494,2227.667726278305
2495,2228.6037311553955
2496,2229.5407361984253
2497,2230.4797410964966
2498,2231.402745962143
2499,2232.3567509651184
2500,2233.3247559070587
2501,2234.273761034012
2502,2235.244765996933
2503,2236.1907711029053
2504,2237.14377617836
2505,2238.090781211853
2506,2239.0237860679626
2507,2239.960790872574
2508,2240.878795862198
2509,2241.8128006458282
2510,2242.749805688858
2511,2243.656810283661
2512,2244.5938153266907
2513,2245.5268201828003
2514,2246.4448251724243
2515,2247.3798298835754
2516,2248.303834915161
2517,2249.2368397712708
2518,2250.1868448257446
2519,2251.1458497047424
2520,2252.083854675293
2521,2253.0348596572876
2522,2253.9668645858765
2523,2254.9188697338104
2524,2255.8608746528625
2525,2256.7748794555664
2526,2257.712884426117
2527,2258.644889354706
2528,2259.5618941783905
2529,2260.49689912796
2530,2261.421903848648
2531,2262.335908651352
2532,2263.2589135169983
2533,2264.1719183921814
2534,2265.1129233837128
2535,2266.0689284801483
2536,2266.9919333457947
2537,2267.940938234329
2538,2268.8799431324005
2539,2269.8169481754303
2540,2270.7569530010223
2541,2271.673957824707
2542,2272.5989627838135
2543,2273.5229675769806
2544,2274.431972503662
2545,2275.3789772987366
2546,2276.3099822998047
2547,2277.251987218857
2548,2278.19899225235
2549,2279.135997056961
2550,2280.085002183914
2551,2281.033007144928
2552,2281.9370119571686
2553,2282.824016571045
2554,2283.732021331787
2555,2284.6580262184143
2556,2285.6170313358307
2557,2286.5910363197327
2558,2287.550041437149
2559,2288.5380465984344
2560,2289.5130517482758
2561,2290.488056898117
2562,2291.449061870575
2563,2292.4180669784546
2564,2293.380072116852
2565,2294.3170771598816
2566,2295.272082090378
2567,2296.2200870513916
2568,2297.142091989517
2569,2298.0810968875885
2570,2299.0211017131805
2571,2299.9231066703796
2572,2300.8521115779877
2573,2301.802116394043
2574,2302.716121196747
2575,2303.6741263866425
2576,2304.6341314315796
2577,2305.5691363811493
2578,2306.531141281128
2579,2307.4861464500427
2580,2308.423151254654
2581,2309.372156381607
2582,2310.3091611862183
2583,2311.2221660614014
2584,2312.1461708545685
2585,2313.0651757717133
2586,2313.964180469513
2587,2314.893185377121
2588,2315.82519030571
2589,2316.738195180893
2590,2317.6862001419067
2591,2318.640205144882
2592,2319.56520986557
2593,2320.515214920044
2594,2321.4612200260162
2595,2322.3922247886658
2596,2323.333229780197
2597,2324.2692346572876
2598,2325.1932396888733
2599,2326.141244649887
2600,2327.0792496204376
2601,2328.028254508972
2602,2328.978259563446
2603,2329.900264263153
2604,2330.8512694835663
2605,2331.794274330139
2606,2332.726279258728
2607,2333.6752841472626
2608,2334.6122891902924
2609,2335.544294118881
2610,2336.495299100876
2611,2337.434303998947
2612,2338.384309053421
2613,2339.334314107895
2614,2340.261318922043
2615,2341.2123239040375
2616,2342.1493289470673
2617,2343.076333761215
2618,2344.0183386802673
2619,2344.961343765259
2620,2345.8923485279083
2621,2346.8383536338806
2622,2347.7623584270477
2623,2348.7083632946014
2624,2349.648368358612
2625,2350.554373025894
2626,2351.486377954483
2627,2352.415382862091
2628,2353.3243877887726
2629,2354.2643926143646
2630,2355.207397699356
2631,2356.1244025230408
2632,2357.0674073696136
2633,2358.006412267685
2634,2358.9304172992706
2635,2359.8784222602844
2636,2360.8164269924164
2637,2361.7474319934845
2638,2362.6974370479584
2639,2363.6294419765472
2640,2364.578446865082
2641,2365.5294518470764
2642,2366.452456712723
2643,2367.401461839676
2644,2368.3524668216705
2645,2369.2794716358185
2646,2370.2274765968323
2647,2371.160481452942
2648,2372.096486568451
2649,2373.051491498947
2650,2373.9824965000153
2651,2374.9115014076233
2652,2375.8175060749054
2653,2376.7305109500885
2654,2377.6595158576965
2655,2378.5875205993652
2656,2379.5005254745483
2657,2380.4405303001404
2658,2381.365535259247
2659,2382.293540239334
2660,2383.2295451164246
2661,2384.162549972534
2662,2385.063554763794
2663,2385.9525594711304
2664,2386.869564294815
2665,2387.7975690364838
2666,2388.7535741329193
2667,2389.7365794181824
2668,2390.7115845680237
2669,2391.686589717865
2670,2392.658594608307
2671,2393.633599758148
2672,2394.6156051158905
2673,2395.58461022377
2674,2396.5556151866913
2675,2397.508620262146
2676,2398.474625349045
2677,2399.4456305503845
2678,2400.4036355018616
2679,2401.3506405353546
2680,2402.3106455802917
2681,2403.232650279999
2682,2404.180655479431
2683,2405.14466047287
2684,2406.088665485382
2685,2407.072670698166
2686,2408.056675672531
2687,2409.02668094635
2688,2410.0296862125397
2689,2411.0216913223267
2690,2412.0026965141296
2691,2412.9867017269135
2692,2413.9647068977356
2693,2414.9297120571136
2694,2415.9097170829773
2695,2416.893722295761
2696,2417.858727455139
2697,2418.8497326374054
2698,2419.8407378196716
2699,2420.799742937088
2700,2421.776747941971
2701,2422.7487530708313
2702,2423.704758167267
2703,2424.690763235092
2704,2425.684768676758
2705,2426.6487736701965
2706,2427.6617789268494
2707,2428.6577842235565
2708,2429.644789457321
2709,2430.649794816971
2710,2431.6267998218536
2711,2432.6128051280975
2712,2433.5968101024628
2713,2434.5568153858185
2714,2435.538820505142
2715,2436.5168256759644
2716,2437.457830429077
2717,2438.426835536957
2718,2439.4028408527374
2719,2440.3458456993103
2720,2441.3258509635925
2721,2442.294856071472
2722,2443.256860971451
2723,2444.234866142273
2724,2445.2108714580536
2725,2446.1688764095306
2726,2447.148881673813
2727,2448.119886636734
2728,2449.1048917770386
2729,2450.0898971557617
2730,2451.0329020023346
2731,2452.002907037735
2732,2452.972912311554
2733,2453.894917011261
2734,2454.854922056198
2735,2455.8089270591736
2736,2456.7479321956635
2737,2457.717937231064
2738,2458.67694234848
2739,2459.639947414398
2740,2460.6249525547028
2741,2461.581957578659
2742,2462.542962551117
2743,2463.515967607498
2744,2464.4539725780487
2745,2465.420977830887
2746,2466.3859827518463
2747,2467.322987794876
2748,2468.2909927368164
2749,2469.246997833252
2750,2470.1860027313232
2751,2471.1470079421997
2752,2472.0820128917694
2753,2473.046017885208
2754,2474.0210230350494
2755,2474.973027944565
2756,2475.9570331573486
2757,2476.93003821373
2758,2477.8720433712006
2759,2478.8510484695435
2760,2479.8220534324646
2761,2480.7780585289
2762,2481.746063709259
2763,2482.707068681717
2764,2483.635073661804
2765,2484.5950787067413
2766,2485.5520837306976
2767,2486.477088689804
2768,2487.399093389511
2769,2488.354098558426
2770,2489.329103708267
2771,2490.311108827591
2772,2491.2811138629913
2773,2492.2751190662384
2774,2493.264124393463
2775,2494.2351293563843
2776,2495.2281346321106
2777,2496.2101397514343
2778,2497.163144826889
2779,2498.1361498832703
2780,2499.10515499115
2781,2500.049160003662
2782,2501.0111651420593
2783,2501.9861702919006
2784,2502.923175096512
2785,2503.8911802768707
2786,2504.867185354233
2787,2505.7991902828217
2788,2506.7651953697205
2789,2507.752200603485
2790,2508.7302057743073
2791,2509.7052109241486
2792,2510.708216190338
2793,2511.6862213611603
2794,2512.668226480484
2795,2513.6772317886353
2796,2514.6662368774414
2797,2515.653242111206
2798,2516.650247335434
2799,2517.6392526626587
2800,2518.6162576675415
2801,2519.6172630786896
2802,2520.6132683753967
2803,2521.5912733078003
2804,2522.5912787914276
2805,2523.5892839431763
2806,2524.5712890625
2807,2525.583294391632
2808,2526.58429980278
2809,2527.560304880142
2810,2528.5493099689484
2811,2529.5273151397705
2812,2530.484320163727
2813,2531.46532535553
2814,2532.445330619812
2815,2533.3913354873657
2816,2534.374340772629
2817,2535.360345840454
2818,2536.333351135254
2819,2537.3213562965393
2820,2538.311361312866
2821,2539.2403662204742
2822,2540.19837141037
2823,2541.161376476288
2824,2542.0763812065125
2825,2543.001386165619
2826,2543.9373910427094
2827,2544.8463957309723
2828,2545.7804007530212
2829,2546.723405599594
2830,2547.6494104862213
2831,2548.5904154777527
2832,2549.5384204387665
2833,2550.4874255657196
2834,2551.436430454254
2835,2552.3974356651306
2836,2553.3454406261444
2837,2554.2704453468323
2838,2555.2194504737854
2839,2556.171455383301
2840,2557.0924603939056
2841,2557.9914650917053
2842,2558.9154698848724
2843,2559.8834750652313
2844,2560.8854801654816
2845,2561.864485502243
2846,2562.8264904022217
2847,2563.8154957294464
2848,2564.8015007972717
2849,2565.780506134033
2850,2566.77051115036
2851,2567.736516237259
2852,2568.7105214595795
2853,2569.68052649498
2854,2570.6415317058563
2855,2571.5975365638733
2856,2572.5725417137146
2857,2573.5395469665527
2858,2574.474551677704
2859,2575.441556930542
2860,2576.4135620594025
2861,2577.3385667800903
2862,2578.299571990967
2863,2579.254576921463
2864,2580.1745817661285
2865,2581.07958650589
2866,2582.006591320038
2867,2582.9485964775085
2868,2583.913601398468
2869,2584.8856065273285
2870,2585.8516116142273
2871,2586.8136167526245
2872,2587.7926218509674
2873,2588.7656269073486
2874,2589.7026319503784
2875,2590.658637046814
2876,2591.605642080307
2877,2592.561646938324
2878,2593.503651857376
2879,2594.4636569023132
2880,2595.4016618728638
2881,2596.344666957855
2882,2597.2686717510223
2883,2598.183676481247
2884,2599.06068110466
2885,2599.9526858329773
2886,2600.8156905174255
2887,2601.7276952266693
2888,2602.6567001342773
2889,2603.607705116272
2890,2604.5767102241516
2891,2605.5637154579163
2892,2606.57972073555
2893,2607.583726167679
2894,2608.5817313194275
2895,2609.589736700058
2896,2610.5827419757843
2897,2611.577747106552
2898,2612.579752445221
2899,2613.5777575969696
2900,2614.5907628536224
2901,2615.564768075943
2902,2616.579773426056
2903,2617.625778913498
2904,2618.674784421921
2905,2619.6737897396088
2906,2620.695795059204
2907,2621.7098004817963
2908,2622.7008056640625
2909,2623.7298109531403
2910,2624.7468163967133
2911,2625.7728219032288
2912,2626.7758271694183
2913,2627.741832256317
2914,2628.7268373966217
2915,2629.678842306137
2916,2630.6368474960327
2917,2631.583852291107
2918,2632.5308573246
2919,2633.4608623981476
2920,2634.429867506027
2921,2635.4208726882935
2922,2636.3808777332306
2923,2637.389883041382
2924,2638.3878881931305
2925,2639.3848934173584
2926,2640.4068987369537
2927,2641.39990401268
2928,2642.367909193039
2929,2643.3629143238068
2930,2644.339919567108
2931,2645.320924758911
2932,2646.3119299411774
2933,2647.275934934616
2934,2648.2559401988983
2935,2649.2519454956055
2936,2650.250950574875
2937,2651.235955953598
2938,2652.24796128273
2939,2653.244966506958
2940,2654.221971511841
2941,2655.2239768505096
2942,2656.22798204422
2943,2657.195987224579
2944,2658.1979925632477
2945,2659.1749975681305
2946,2660.185003042221
2947,2661.182008266449
2948,2662.148013353348
2949,2663.144018650055
2950,2664.138023853302
2951,2665.112028837204
2952,2666.110034227371
2953,2667.0830392837524
2954,2668.073044538498
2955,2669.078049659729
2956,2670.0540549755096
2957,2671.044060230255
2958,2672.034065246582
2959,2672.9910702705383
2960,2673.9920756816864
2961,2674.9780807495117
2962,2675.9340858459473
2963,2676.9430911540985
2964,2677.965096473694
2965,2678.9521017074585
2966,2679.9871072769165
2967,2681.019112586975
2968,2682.0071177482605
2969,2683.015123128891
2970,2684.0051283836365
2971,2684.98713350296
2972,2685.9581387043
2973,2686.901143550873
2974,2687.8751487731934
2975,2688.8251538276672
2976,2689.797158718109
2977,2690.781163930893
2978,2691.728168964386
2979,2692.7131741046906
2980,2693.68217921257
2981,2694.634184360504
2982,2695.597189426422
2983,2696.5481944084167
2984,2697.500199317932
2985,2698.4592044353485
2986,2699.413209438324
2987,2700.36821436882
2988,2701.331219434738
2989,2702.2562243938446
2990,2703.2042293548584
2991,2704.141234397888
2992,2705.0672392845154
2993,2706.0072441101074
2994,2706.9102489948273
2995,2707.8462538719177
2996,2708.7582585811615
2997,2709.6792635917664
2998,2710.6082684993744
2999,2711.5122730731964
3000,2712.4452781677246
3001,2713.3552827835083
3002,2714.2532875537872
3003,2715.168292284012
3004,2716.032296895981
3005,2716.908301591873
3006,2717.7513060569763
3007,2718.603310585022
3008,2719.4433147907257
3009,2720.3113193511963
3010,2721.1693239212036
3011,2722.0333285331726
3012,2722.9033331871033
3013,2723.7603375911713
3014,2724.6353421211243
3015,2725.4983468055725
3016,2726.3523511886597
3017,2727.212355852127
3018,2728.061360359192
3019,2728.935364961624
3020,2729.8093695640564
3021,2730.6683740615845
3022,2731.557378768921
3023,2732.4553833007812
3024,2733.361388206482
3025,2734.293393135071
3026,2735.2033977508545
3027,2736.1374027729034
3028,2737.072407722473
3029,2737.9794125556946
3030,2738.9274175167084
3031,2739.873422384262
3032,2740.792427301407
3033,2741.734432220459
3034,2742.6744372844696
3035,2743.5964419841766
3036,2744.537446975708
3037,2745.482451915741
3038,2746.4304568767548
3039,2747.391462087631
3040,2748.3324670791626
3041,2749.2914719581604
3042,2750.2364768981934
3043,2751.1994819641113
3044,2752.1644871234894
3045,2753.0914919376373
3046,2754.044497013092
3047,2754.993502140045
3048,2755.9465069770813
3049,2756.9165122509003
3050,2757.844516992569
3051,2758.7925219535828
3052,2759.721526861191
3053,2760.665531873703
3054,2761.609536886215
3055,2762.5145416259766
3056,2763.4405465126038
3057,2764.358551263809
3058,2765.303556203842
3059,2766.253561258316
3060,2767.1785662174225
3061,2768.1265711784363
3062,2769.0625760555267
3063,2770.008581161499
3064,2770.9595861434937
3065,2771.875590801239
3066,2772.8185958862305
3067,2773.7636008262634
3068,2774.6846055984497
3069,2775.6246106624603
3070,2776.5476155281067
3071,2777.4726202487946
3072,2778.4016251564026
3073,2779.309629917145
3074,2780.239634990692
3075,2781.16663980484
3076,2782.093644618988
3077,2783.022649526596
3078,2783.935654401779
3079,2784.870659351349
3080,2785.7716641426086
3081,2786.690668821335
3082,2787.5936737060547
3083,2788.512678384781
3084,2789.443683385849
3085,2790.3586881160736
3086,2791.302693128586
3087,2792.2356979846954
3088,2793.160702943802
3089,2794.0787076950073
3090,2794.9837124347687
3091,2795.914717435837
3092,2796.8157222270966
3093,2797.7427270412445
3094,2798.659731864929
3095,2799.5857367515564
3096,2800.518741607666
3097,2801.437746524811
3098,2802.3677513599396
3099,2803.308756351471
3100,2804.219761133194
3101,2805.163766145706
3102,2806.0897710323334
3103,2807.0217759609222
3104,2807.9687809944153
3105,2808.8767857551575
3106,2809.793790578842
3107,2810.72079539299
3108,2811.6228001117706
3109,2812.545804977417
3110,2813.472809791565
3111,2814.372814655304
3112,2815.2898194789886
3113,2816.197824239731
3114,2817.0968289375305
3115,2818.0058336257935
3116,2818.912838459015
3117,2819.8278431892395
3118,2820.7468481063843
3119,2821.649852991104
3120,2822.577857732773
3121,2823.506862640381
3122,2824.3918673992157
3123,2825.3058722019196
3124,2826.2348771095276
3125,2827.1278817653656
3126,2828.066886663437
3127,2829.0068917274475
3128,2829.9328966140747
3129,2830.867901325226
3130,2831.775906085968
3131,2832.696911096573
3132,2833.6149158477783
3133,2834.5259206295013
3134,2835.4539256095886
3135,2836.3789303302765
3136,2837.2739350795746
3137,2838.2059400081635
3138,2839.138944864273
3139,2840.0469496250153
3140,2840.980954647064
3141,2841.9239597320557
3142,2842.854964494705
3143,2843.7959694862366
3144,2844.7419743537903
3145,2845.67897939682
3146,2846.6349844932556
3147,2847.5619893074036
3148,2848.517994403839
3149,2849.4829993247986
3150,2850.4190044403076
3151,2851.3850095272064
3152,2852.347014427185
3153,2853.2850193977356
3154,2854.242024421692
3155,2855.168029308319
3156,2856.102034330368
3157,2857.029039144516
3158,2857.9410438537598
3159,2858.864048719406
3160,2859.754053592682
3161,2860.675058364868
3162,2861.589063167572
3163,2862.498067855835
3164,2863.4220728874207
3165,2864.3320775032043
3166,2865.2370822429657
3167,2866.1540870666504
3168,2867.0720920562744
3169,2867.9860968589783
3170,2868.9151017665863
3171,2869.828106403351
3172,2870.751111268997
3173,2871.6781163215637
3174,2872.5801210403442
3175,2873.518126010895
3176,2874.4541308879852
3177,2875.348135471344
3178,2876.2601404190063
3179,2877.1501450538635
3180,2878.0301496982574
3181,2878.911154270172
3182,2879.8201591968536
3183,2880.7341639995575
3184,2881.6431686878204
3185,2882.5721735954285
3186,2883.494178533554
3187,2884.3571829795837
3188,2885.251187801361
3189,2886.1251924037933
3190,2886.9871969223022
3191,2887.8542013168335
3192,2888.7312059402466
3193,2889.6342108249664
3194,2890.5242154598236
3195,2891.446220397949
3196,2892.3752253055573
3197,2893.319230079651
3198,2894.2492351531982
3199,2895.205240011215
3200,2896.1672451496124
3201,2897.1292502880096
3202,2898.117255449295
3203,2899.099260568619
3204,2900.048265695572
3205,2901.0152707099915
3206,2901.971275806427
3207,2902.929280757904
3208,2903.908285856247
3209,2904.858290910721
3210,2905.8602962493896
3211,2906.8473014831543
3212,2907.8173065185547
3213,2908.789311647415
3214,2909.747316598892
3215,2910.7073216438293
3216,2911.6743268966675
3217,2912.621331691742
3218,2913.5803368091583
3219,2914.5383417606354
3220,2915.4773468971252
3221,2916.4293518066406
3222,2917.373356819153
3223,2918.320361852646
3224,2919.278366804123
3225,2920.207371711731
3226,2921.1663768291473
3227,2922.133381843567
3228,2923.0633866786957
3229,2924.022391796112
3230,2924.969396829605
3231,2925.9074018001556
3232,2926.8514065742493
3233,2927.785411596298
3234,2928.736416578293
3235,2929.69842171669
3236,2930.625426530838
3237,2931.593431711197
3238,2932.5634367465973
3239,2933.5074417591095
3240,2934.4654467105865
3241,2935.416451692581
3242,2936.368456840515
3243,2937.3234617710114
3244,2938.243466615677
3245,2939.18847155571
3246,2940.133476495743
3247,2941.0674815177917
3248,2942.019486427307
3249,2942.9594914913177
3250,2943.9124965667725
3251,2944.8735015392303
3252,2945.813506603241
3253,2946.7775115966797
3254,2947.737516641617
3255,2948.7015216350555
3256,2949.6665267944336
3257,2950.5985317230225
3258,2951.562536716461
3259,2952.515541791916
3260,2953.4675467014313
3261,2954.4145517349243
3262,2955.347556591034
3263,2956.315561771393
3264,2957.278566837311
3265,2958.2465720176697
3266,2959.211576938629
3267,2960.1525819301605
3268,2961.1155869960785
3269,2962.05459189415
3270,2963.0045969486237
3271,2963.942601919174
3272,2964.869606733322
3273,2965.7966117858887
3274,2966.70161652565
3275,2967.630621433258
3276,2968.5356261730194
3277,2969.466630935669
3278,2970.3856358528137
3279,2971.3186407089233
3280,2972.24364566803
3281,2973.1586503982544
3282,2974.0906553268433
3283,2974.992660045624
3284,2975.9306650161743
3285,2976.8566699028015
3286,2977.7806746959686
3287,2978.7126796245575
3288,2979.6306846141815
3289,2980.5676894187927
3290,2981.5186944007874
3291,2982.443699359894
3292,2983.3797042369843
3293,2984.3057091236115
3294,2985.2147138118744
3295,2986.1457188129425
3296,2987.081723690033
3297,2987.978728532791
3298,2988.861733198166
3299,2989.772737979889
3300,2990.6897428035736
3301,2991.6357476711273
3302,2992.591752767563
3303,2993.546757698059
3304,2994.5187628269196
3305,2995.485767841339
3306,2996.4417729377747
3307,2997.380777835846
3308,2998.2927827835083
3309,2999.2037875652313
3310,3000.13379240036
3311,3001.0877974033356
3312,3002.031802415848
3313,3002.952807188034
3314,3003.894812107086
3315,3004.8598172664642
3316,3005.8248224258423
3317,3006.7658274173737
3318,3007.7318325042725
3319,3008.6998374462128
3320,3009.6508424282074
3321,3010.6188476085663
3322,3011.5908527374268
3323,3012.5438578128815
3324,3013.4988627433777
3325,3014.4538679122925
3326,3015.404872894287
3327,3016.352877855301
3328,3017.302882909775
3329,3018.224887609482
3330,3019.1728925704956
3331,3020.1218976974487
3332,3021.029902458191
3333,3021.966907262802
3334,3022.9179122447968
3335,3023.858917236328
3336,3024.794922351837
3337,3025.7489273548126
3338,3026.7119324207306
3339,3027.6739373207092
3340,3028.636942386627
3341,3029.5789473056793
3342,3030.523952484131
3343,3031.4729573726654
3344,3032.407962322235
3345,3033.347967147827
3346,3034.289972305298
3347,3035.210977077484
3348,3036.1209819316864
3349,3037.014986515045
3350,3037.9099912643433
3351,3038.7809958457947
3352,3039.6770005226135
3353,3040.587005376816
3354,3041.518010377884
3355,3042.4300150871277
3356,3043.3780200481415
3357,3044.330024957657
3358,3045.261029958725
3359,3046.208034992218
3360,3047.171040058136
3361,3048.129045009613
3362,3049.063050031662
3363,3050.0170550346375
3364,3050.952059984207
3365,3051.8670647144318
3366,3052.7990696430206
3367,3053.7280745506287
3368,3054.6580793857574
3369,3055.612084388733
3370,3056.569089412689
3371,3057.4920942783356
3372,3058.4230992794037
3373,3059.3631041049957
3374,3060.306109189987
3375,3061.2441141605377
3376,3062.1691188812256
3377,3063.1011238098145
3378,3064.039128780365
3379,3064.973133802414
3380,3065.897138595581
3381,3066.8301434516907
3382,3067.768148422241
3383,3068.6891531944275
3384,3069.613158226013
3385,3070.558163166046
3386,3071.5151681900024
3387,3072.4731731414795
3388,3073.444178342819
3389,3074.408183336258
3390,3075.3851885795593
3391,3076.336193561554
3392,3077.3201987743378
3393,3078.314203977585
3394,3079.261209011078
3395,3080.255214214325
3396,3081.2422194480896
3397,3082.21022439003
3398,3083.2172298431396
3399,3084.1782348155975
3400,3085.170240163803
3401,3086.1662452220917
3402,3087.1402504444122
3403,3088.156255722046
3404,3089.1742610931396
3405,3090.159266233444
3406,3091.1572716236115
3407,3092.1592767238617
3408,3093.1482820510864
3409,3094.135287284851
3410,3095.114292383194
3411,3096.0702974796295
3412,3097.0543026924133
3413,3098.0443077087402
3414,3099.0193128585815
3415,3100.0183181762695
3416,3100.9893233776093
3417,3101.9793286323547
3418,3102.970333814621
3419,3103.926338672638
3420,3104.914344072342
3421,3105.8973491191864
3422,3106.861354112625
3423,3107.8533594608307
3424,3108.830364704132
3425,3109.806369781494
3426,3110.790374994278
3427,3111.7473800182343
3428,3112.7123849391937
3429,3113.6833901405334
3430,3114.6203951835632
3431,3115.586400270462
3432,3116.5514051914215
3433,3117.489410161972
3434,3118.465415239334
3435,3119.435420513153
3436,3120.3894255161285
3437,3121.3704307079315
3438,3122.337435722351
3439,3123.2864406108856
3440,3124.2594459056854
3441,3125.211450815201
3442,3126.1954560279846
3443,3127.1914613246918
3444,3128.1554663181305
3445,3129.1444714069366
3446,3130.122476577759
3447,3131.0954818725586
3448,3132.091486930847
3449,3133.057492017746
3450,3134.035497188568
3451,3135.0145025253296
3452,3135.9675073623657
3453,3136.9435126781464
3454,3137.918517589569
3455,3138.8765227794647
3456,3139.8575279712677
3457,3140.832533121109
3458,3141.8205382823944
3459,3142.81054353714
3460,3143.7625484466553
3461,3144.7585537433624
3462,3145.7505588531494
3463,3146.723564147949
3464,3147.719569206238
3465,3148.7115745544434
3466,3149.6745796203613
3467,3150.657584667206
3468,3151.637589931488
3469,3152.6075949668884
3470,3153.6056003570557
3471,3154.596605539322
3472,3155.5766105651855
3473,3156.581615924835
3474,3157.552621126175
3475,3158.5006260871887
3476,3159.468631029129
3477,3160.4276361465454
3478,3161.401641368866
3479,3162.374646425247
3480,3163.3056514263153
3481,3164.2606563568115
3482,3165.2246613502502
3483,3166.1526663303375
3484,3167.1256713867188
3485,3168.10067653656
3486,3169.049681663513
3487,3170.0276868343353
3488,3170.9986917972565
3489,3171.9586968421936
3490,3172.930701971054
3491,3173.8997070789337
3492,3174.8347120285034
3493,3175.7917170524597
3494,3176.753722190857
3495,3177.7057271003723
3496,3178.6817321777344
3497,3179.660737514496
3498,3180.6087424755096
3499,3181.58074760437
3500,3182.556752681732
3501,3183.5157577991486
3502,3184.498762845993
3503,3185.4737679958344
3504,3186.4237730503082
3505,3187.402778148651
3506,3188.385783433914
3507,3189.3407883644104
3508,3190.3237936496735
3509,3191.2977986335754
3510,3192.2548036575317
3511,3193.2248089313507
3512,3194.18981385231
3513,3195.1638190746307
3514,3196.135824203491
3515,3197.0778291225433
3516,3198.045834302902
3517,3199.0218393802643
3518,3199.9768443107605
3519,3200.9598495960236
3520,3201.9518547058105
3521,3202.9218599796295
3522,3203.917865037918
3523,3204.9098703861237
3524,3205.874875307083
3525,3206.8728806972504
3526,3207.846885919571
3527,3208.817890882492
3528,3209.8028960227966
3529,3210.7719011306763
3530,3211.7629063129425
3531,3212.756911754608
3532,3213.722916841507
3533,3214.7109220027924
3534,3215.708927154541
3535,3216.6449320316315
3536,3217.621937274933
3537,3218.602942466736
3538,3219.549947500229
3539,3220.525952577591
3540,3221.4959576129913
3541,3222.443962574005
3542,3223.4209678173065
3543,3224.387972831726
3544,3225.3309779167175
3545,3226.300982952118
3546,3227.2719881534576
3547,3228.220993041992
3548,3229.2169983386993
3549,3230.219003677368
3550,3231.2000086307526
3551,3232.2190141677856
3552,3233.2320194244385
3553,3234.1950244903564
3554,3235.1890296936035
3555,3236.174034833908
3556,3237.141040086746
3557,3238.137045145035
3558,3239.120050430298
3559,3240.124055624008
3560,3241.1340610980988
3561,3242.1010661125183
3562,3243.1070713996887
3563,3244.1020765304565
3564,3245.071081638336
3565,3246.0490868091583
3566,3247.004091978073
3567,3247.9460968971252
3568,3248.9161019325256
3569,3249.8871071338654
3570,3250.84011220932
3571,3251.8241171836853
3572,3252.8241226673126
3573,3253.796127796173
3574,3254.7941329479218
3575,3255.787138223648
3576,3256.7571432590485
3577,3257.746148586273
3578,3258.728153705597
3579,3259.6921586990356
3580,3260.667163848877
3581,3261.6261689662933
3582,3262.592174053192
3583,3263.576179265976
3584,3264.552184343338
3585,3265.5351893901825
3586,3266.5351946353912
3587,3267.509199857712
3588,3268.505205154419
3589,3269.5032103061676
3590,3270.4682154655457
3591,3271.458220720291
3592,3272.4152257442474
3593,3273.361230611801
3594,3274.3212356567383
3595,3275.2912409305573
3596,3276.2642459869385
3597,3277.2382509708405
3598,3278.2052562236786
3599,3279.1742613315582
3600,3280.1502664089203
3601,3281.1052713394165
3602,3282.074276447296
3603,3283.050281763077
3604,3284.000286579132
3605,3284.9752917289734
3606,3285.964297056198
3607,3286.9133019447327
3608,3287.9003071784973
3609,3288.8803124427795
3610,3289.8383173942566
3611,3290.8173224925995
3612,3291.7903277873993
3613,3292.7433326244354
3614,3293.7233378887177
3615,3294.6993429660797
3616,3295.643347978592
3617,3296.6133530139923
3618,3297.5753581523895
3619,3298.5233631134033
3620,3299.5003683567047
3621,3300.4693734645844
3622,3301.454378604889
3623,3302.4343836307526
3624,3303.3973886966705
3625,3304.3233935832977
3626,3305.246398448944
3627,3306.1864035129547
3628,3307.123408317566
3629,3308.031413078308
3630,3308.9754180908203
3631,3309.915423154831
3632,3310.8274278640747
3633,3311.768432855606
3634,3312.7194378376007
3635,3313.6514427661896
3636,3314.62144780159
3637,3315.600452899933
3638,3316.570458173752
3639,3317.559463262558
3640,3318.5414683818817
3641,3319.5094735622406
3642,3320.4874787330627
3643,3321.4684839248657
3644,3322.4164888858795
3645,3323.3924939632416
3646,3324.3574991226196
3647,3325.283504009247
3648,3326.248509168625
3649,3327.2265141010284
3650,3328.1775193214417
3651,3329.1525242328644
3652,3330.1405296325684
3653,3331.0965344905853
3654,3332.099539756775
3655,3333.0935451984406
3656,3334.0675501823425
3657,3335.0515553951263
3658,3336.0425605773926
3659,3337.0075657367706
3660,3338.0045709609985
3661,3338.997576236725
3662,3339.972581386566
3663,3340.9815866947174
3664,3341.9715917110443
3665,3342.9495968818665
3666,3343.9356021881104
3667,3344.9036073684692
3668,3345.8796124458313
3669,3346.8736176490784
3670,3347.842622756958
3671,3348.834627866745
3672,3349.8296332359314
3673,3350.7926383018494
3674,3351.790643453598
3675,3352.784648656845
3676,3353.7536537647247
3677,3354.7566590309143
3678,3355.740664243698
3679,3356.706669330597
3680,3357.702674627304
3681,3358.688679933548
3682,3359.661684989929
3683,3360.6546902656555
3684,3361.624695301056
3685,3362.605700492859
3686,3363.5877056121826
3687,3364.5357105731964
3688,3365.4667155742645
3689,3366.423720598221
3690,3367.394725561142
3691,3368.3877308368683
3692,3369.358736038208
3693,3370.3617413043976
3694,3371.3767466545105
3695,3372.363751888275
3696,3373.361757040024
3697,3374.3647623062134
3698,3375.353767633438
3699,3376.350772857666
3700,3377.3417780399323
3701,3378.30478310585
3702,3379.306788444519
3703,3380.3267936706543
3704,3381.3197989463806
3705,3382.3168041706085
3706,3383.309809446335
3707,3384.2588143348694
3708,3385.242819547653
3709,3386.2358248233795
3710,3387.194829940796
3711,3388.204835176468
3712,3389.2078404426575
3713,3390.2048456668854
3714,3391.235851049423
3715,3392.240856409073
3716,3393.2428617477417
3717,3394.2408668994904
3718,3395.20987200737
3719,3396.2028772830963
3720,3397.1828825473785
3721,3398.132887363434
3722,3399.114892721176
3723,3400.0978977680206
3724,3401.0639028549194
3725,3402.0739080905914
3726,3403.081913471222
3727,3404.064918756485
3728,3405.074923992157
3729,3406.070929288864
3730,3407.0459344387054
3731,3408.0529396533966
3732,3409.073945045471
3733,3410.068950176239
3734,3411.0919556617737
3735,3412.0249605178833
3736,3412.926965236664
3737,3413.8589701652527
3738,3414.7929751873016
3739,3415.7439801692963
3740,3416.717985391617
3741,3417.6929903030396
3742,3418.66899561882
3743,3419.651000738144
3744,3420.6030056476593
3745,3421.572010755539
3746,3422.534015893936
3747,3423.5090210437775
3748,3424.484026193619
3749,3425.4480311870575
3750,3426.409036397934
3751,3427.382041454315
3752,3428.3340463638306
3753,3429.272051334381
3754,3430.227056503296
3755,3431.185061454773
3756,3432.116066455841
3757,3433.0820713043213
3758,3434.0490765571594
3759,3434.98308134079
3760,3435.929086446762
3761,3436.8960914611816
3762,3437.853096485138
3763,3438.805101633072
3764,3439.76810669899
3765,3440.7331116199493
3766,3441.681116580963
3767,3442.654121875763
3768,3443.625126838684
3769,3444.585131883621
3770,3445.5651371479034
3771,3446.534142255783
3772,3447.477147102356
3773,3448.4521522521973
3774,3449.4241573810577
3775,3450.37016248703
3776,3451.3351674079895
3777,3452.3031725883484
3778,3453.2521777153015
3779,3454.2341828346252
3780,3455.237188100815
3781,3456.213193178177
3782,3457.2011983394623
3783,3458.159203529358
3784,3459.114208459854
3785,3460.072213411331
3786,3461.0282185077667
3787,3461.952223300934
3788,3462.90922832489
3789,3463.864233493805
3790,3464.7942383289337
3791,3465.71524310112
3792,3466.630248069763
3793,3467.542252779007
3794,3468.4772577285767
3795,3469.382262468338
3796,3470.314267396927
3797,3471.258272409439
3798,3472.174277305603
3799,3473.083281993866
3800,3473.991286754608
3801,3474.8982915878296
3802,3475.795296192169
3803,3476.7023010253906
3804,3477.625305891037
3805,3478.541310787201
3806,3479.5033156871796
3807,3480.448320865631
3808,3481.388325691223
3809,3482.3143305778503
3810,3483.257335424423
3811,3484.2013404369354
3812,3485.1373455524445
3813,3486.0903503894806
3814,3487.0593554973602
3815,3488.0473606586456
3816,3489.0643661022186
3817,3490.101371526718
3818,3491.11337685585
3819,3492.151382446289
3820,3493.19238781929
3821,3494.1953930854797
3822,3495.224398612976
3823,3496.254404067993
3824,3497.252409219742
3825,3498.2854146957397
3826,3499.2954199314117
3827,3500.306425333023
3828,3501.3154306411743
3829,3502.279435634613
3830,3503.281440973282
3831,3504.28044629097
3832,3505.2494513988495
3833,3506.2584567070007
3834,3507.260461807251
3835,3508.254467010498
3836,3509.2654724121094
3837,3510.2634778022766
3838,3511.2734830379486
3839,3512.28448843956
3840,3513.2624933719635
3841,3514.2604987621307
3842,3515.250504016876
3843,3516.214509010315
3844,3517.193514108658
3845,3518.158519268036
3846,3519.1145243644714
3847,3520.0875294208527
3848,3521.0455343723297
3849,3521.9985394477844
3850,3522.9635446071625
3851,3523.9055495262146
3852,3524.864554643631
3853,3525.8145594596863
3854,3526.751564502716
3855,3527.696569442749
3856,3528.6245744228363
3857,3529.57057929039
3858,3530.5265843868256
3859,3531.4585893154144
3860,3532.407594203949
3861,3533.3505992889404
3862,3534.260603904724
3863,3535.1906089782715
3864,3536.105613708496
3865,3537.016618490219
3866,3537.9626235961914
3867,3538.9016284942627
3868,3539.8396334648132
3869,3540.784638404846
3870,3541.7046432495117
3871,3542.6606483459473
3872,3543.60565328598
3873,3544.537658214569
3874,3545.490663051605
3875,3546.430668115616
3876,3547.3766729831696
3877,3548.3246779441833
3878,3549.25168299675
3879,3550.1976878643036
3880,3551.141692876816
3881,3552.069697856903
3882,3553.0317027568817
3883,3554.008708000183
3884,3554.9527130126953
3885,3555.9307181835175
3886,3556.9067232608795
3887,3557.889728307724
3888,3558.8787336349487
3889,3559.843738794327
3890,3560.824743747711
3891,3561.8067491054535
3892,3562.760754108429
3893,3563.741759300232
3894,3564.7137644290924
3895,3565.654769182205
3896,3566.627774477005
3897,3567.5967795848846
3898,3568.533784389496
3899,3569.496789455414
3900,3570.4657945632935
3901,3571.401799440384
3902,3572.3528044223785
3903,3573.2968094348907
3904,3574.253814458847
3905,3575.213819503784
3906,3576.160824537277
3907,3577.1168296337128
3908,3578.0848348140717
3909,3579.0308396816254
3910,3579.986844778061
3911,3580.9558498859406
3912,3581.909854888916
3913,3582.8628599643707
3914,3583.8108649253845
3915,3584.7398698329926
3916,3585.690874814987
3917,3586.641879796982
3918,3587.583884716034
3919,3588.5508897304535
3920,3589.501894712448
3921,3590.4638998508453
3922,3591.4269049167633
3923,3592.3539097309113
3924,3593.3259148597717
3925,3594.29292011261
3926,3595.231925010681
3927,3596.19793009758
3928,3597.1679351329803
3929,3598.1139402389526
3930,3599.085945367813
3931,3600.061950445175
3932,3601.024955511093
3933,3601.9959604740143
3934,3602.9709656238556
3935,3603.9699709415436
3936,3604.9559762477875
3937,3605.9219813346863
3938,3606.9089863300323
3939,3607.864991426468
3940,3608.826996564865
3941,3609.7960016727448
3942,3610.737006664276
3943,3611.72101187706
3944,3612.7220170497894
3945,3613.6980221271515
3946,3614.690027475357
3947,3615.683032512665
3948,3616.6730377674103
3949,3617.670042991638
3950,3618.6350481510162
3951,3619.630053281784
3952,3620.6240587234497
3953,3621.5830636024475
3954,3622.5720689296722
3955,3623.549073934555
3956,3624.5060789585114
3957,3625.4830842018127
3958,3626.4520893096924
3959,3627.416094303131
3960,3628.3910994529724
3961,3629.3591046333313
3962,3630.328109741211
3963,3631.3031148910522
3964,3632.2371196746826
3965,3633.211124897003
3966,3634.179130077362
3967,3635.127135038376
3968,3636.1071400642395
3969,3637.063145160675
3970,3638.0251502990723
3971,3638.9971554279327
3972,3639.9431602954865
3973,3640.9091653823853
3974,3641.880170583725
3975,3642.8311755657196
3976,3643.8091807365417
3977,3644.7781858444214
3978,3645.743190765381
3979,3646.7161960601807
3980,3647.6612010002136
3981,3648.5932059288025
3982,3649.5362107753754
3983,3650.4812157154083
3984,3651.39022064209
3985,3652.327225446701
3986,3653.2652304172516
3987,3654.190235376358
3988,3655.1542403697968
3989,3656.114245414734
3990,3657.0572504997253
3991,3658.0352556705475
3992,3659.023260831833
3993,3659.9822657108307
3994,3660.944270849228
3995,3661.92427611351
3996,3662.890281200409
3997,3663.850286245346
3998,3664.8172912597656
3999,3665.7682962417603
4000,3666.729301214218
4001,3667.6893062591553
4002,3668.6333112716675
4003,3669.609316587448
4004,3670.5803215503693
4005,3671.525326490402
4006,3672.5003316402435
4007,3673.469336748123
4008,3674.4113416671753
4009,3675.387346982956
4010,3676.3563520908356
4011,3677.3193571567535
4012,3678.3063621520996
4013,3679.2773673534393
4014,3680.2543725967407
4015,3681.232377767563
4016,3682.2143828868866
4017,3683.1963880062103
4018,3684.1873931884766
4019,3685.143398284912
4020,3686.1234033107758
4021,3687.1114087104797
4022,3688.0544135570526
4023,3689.027418613434
4024,3690.0064239501953
4025,3690.95342874527
4026,3691.933434009552
4027,3692.9334392547607
4028,3693.887444257736
4029,3694.8834495544434
4030,3695.865454673767
4031,3696.8224596977234
4032,3697.8164649009705
4033,3698.804470062256
4034,3699.7764751911163
4035,3700.779480457306
4036,3701.7734858989716
4037,3702.746490955353
4038,3703.752496242523
4039,3704.7425014972687
4040,3705.71350646019
4041,3706.6995117664337
4042,3707.671516895294
4043,3708.6365218162537
4044,3709.611526966095
4045,3710.5875322818756
4046,3711.541537284851
4047,3712.50754237175
4048,3713.446547269821
4049,3714.41455245018
4050,3715.3695573806763
4051,3716.31956243515
4052,3717.2905673980713
4053,3718.2395725250244
4054,3719.2005774974823
4055,3720.1815826892853
4056,3721.1365876197815
4057,3722.1095929145813
4058,3723.0855979919434
4059,3724.005602836609
4060,3724.9106075763702
4061,3725.8476126194
4062,3726.8016176223755
4063,3727.766622543335
4064,3728.733627796173
4065,3729.7176327705383
4066,3730.6986379623413
4067,3731.669643163681
4068,3732.6626484394073
4069,3733.6366534233093
4070,3734.594658613205
4071,3735.570663690567
4072,3736.536668777466
4073,3737.498673915863
4074,3738.4556789398193
4075,3739.3926837444305
4076,3740.3416888713837
4077,3741.2916939258575
4078,3742.2216987609863
4079,3743.1797037124634
4080,3744.134708881378
4081,3745.0897138118744
4082,3746.071718931198
4083,3747.0177240371704
4084,3748.010729074478
4085,3749.017734527588
4086,3749.985739469528
4087,3750.9837448596954
4088,3751.9577498435974
4089,3752.9207549095154
4090,3753.891760110855
4091,3754.8457651138306
4092,3755.7987701892853
4093,3756.7757754325867
4094,3757.743780374527
4095,3758.72278547287
4096,3759.718790769577
4097,3760.6957960128784
4098,3761.7028012275696
4099,3762.6988065242767
4100,3763.6988117694855
4101,3764.701817035675
4102,3765.6718220710754
4103,3766.6698274612427
4104,3767.6438324451447
4105,3768.6018376350403
4106,3769.5878427028656
4107,3770.5638477802277
4108,3771.538852930069
4109,3772.511858224869
4110,3773.4568631649017
4111,3774.424868106842
4112,3775.381873369217
4113,3776.344878435135
4114,3777.318883419037
4115,3778.2718884944916
4116,3779.240893602371
4117,3780.1988985538483
4118,3781.1629037857056
4119,3782.1389088630676
4120,3783.0739138126373
4121,3784.045918941498
4122,3785.0109238624573
4123,3785.9579288959503
4124,3786.9329340457916
4125,3787.8959391117096
4126,3788.862944126129
4127,3789.846949338913
4128,3790.8059544563293
4129,3791.7819595336914
4130,3792.752964735031
4131,3793.7079696655273
4132,3794.6859748363495
4133,3795.65597987175
4134,3796.620985031128
4135,3797.6079902648926
4136,3798.5739953517914
4137,3799.557000398636
4138,3800.5200057029724
4139,3801.4760105609894
4140,3802.463015794754
4141,3803.4270207881927
4142,3804.381025791168
4143,3805.362030982971
4144,3806.3290362358093
4145,3807.308041334152
4146,3808.2910463809967
4147,3809.2470514774323
4148,3810.233056783676
4149,3811.2080619335175
4150,3812.1530668735504
4151,3813.1270718574524
4152,3814.093076944351
4153,3815.0490820407867
4154,3816.014087200165
4155,3816.9810922145844
4156,3817.963097333908
4157,3818.944102525711
4158,3819.9031076431274
4159,3820.893112897873
4160,3821.8991181850433
4161,3822.8591232299805
4162,3823.86012840271
4163,3824.8681337833405
4164,3825.83713889122
4165,3826.8281440734863
4166,3827.8111493587494
4167,3828.7871544361115
4168,3829.777159690857
4169,3830.7551646232605
4170,3831.7221698760986
4171,3832.7041749954224
4172,3833.6591799259186
4173,3834.639185190201
4174,3835.627190351486
4175,3836.567195415497
4176,3837.5392005443573
4177,3838.508205652237
4178,3839.4582104682922
4179,3840.428215742111
4180,3841.397220849991
4181,3842.3762259483337
4182,3843.3752312660217
4183,3844.3852365016937
4184,3845.3182413578033
4185,3846.287246465683
4186,3847.267251729965
4187,3848.2392568588257
4188,3849.181261777878
4189,3850.12526679039
4190,3851.033271551132
4191,3851.9352762699127
4192,3852.8602809906006
4193,3853.804286003113
4194,3854.76629114151
4195,3855.7392961978912
4196,3856.7333014011383
4197,3857.706306695938
4198,3858.6943118572235
4199,3859.6903171539307
4200,3860.6933224201202
4201,3861.686327457428
4202,3862.6653327941895
4203,3863.6543378829956
4204,3864.6483430862427
4205,3865.6293482780457
4206,3866.599353313446
4207,3867.5923585891724
4208,3868.600363969803
4209,3869.56036901474
4210,3870.551374197006
4211,3871.5283794403076
4212,3872.4713842868805
4213,3873.448389530182
4214,3874.424394607544
4215,3875.3763995170593
4216,3876.3464047908783
4217,3877.2984097003937
4218,3878.242414712906
4219,3879.2104198932648
4220,3880.1894249916077
4221,3881.1474299430847
4222,3882.1134350299835
4223,3883.0974402427673
4224,3884.0444452762604
4225,3885.0224504470825
4226,3886.010455608368
4227,3886.9824607372284
4228,3887.982465982437
4229,3888.979471206665
4230,3889.9544763565063
4231,3890.9514815807343
4232,3891.948486804962
4233,3892.900491952896
4234,3893.892497062683
4235,3894.8825023174286
4236,3895.875507593155
4237,3896.8755128383636
4238,3897.8915181159973
4239,3898.873523235321
4240,3899.856528520584
4241,3900.7945334911346
4242,3901.738538503647
4243,3902.6995434761047
4244,3903.68954873085
4245,3904.650553703308
4246,3905.6125588417053
4247,3906.5495636463165
4248,3907.488568544388
4249,3908.3955733776093
4250,3909.298578262329
4251,3910.197582960129
4252,3911.0645875930786
4253,3911.9525921344757
4254,3912.839596748352
4255,3913.7206015586853
4256,3914.588606119156
4257,3915.447610616684
4258,3916.3346152305603
4259,3917.2266199588776
4260,3918.1326246261597
4261,3919.026629447937
4262,3919.9296340942383
4263,3920.8396389484406
4264,3921.744643688202
4265,3922.6316483020782
4266,3923.518653154373
4267,3924.3866577148438
4268,3925.2516622543335
4269,3926.06866645813
4270,3926.9346709251404
4271,3927.8166756629944
4272,3928.7116804122925
4273,3929.6196851730347
4274,3930.568690061569
4275,3931.5326952934265
4276,3932.489700317383
4277,3933.408704996109
4278,3934.342710018158
4279,3935.269714832306
4280,3936.177719593048
4281,3937.0517241954803
4282,3937.9317288398743
4283,3938.811733484268
4284,3939.694738149643
4285,3940.5887429714203
4286,3941.4777476787567
4287,3942.3587522506714
4288,3943.241756916046
4289,3944.116761445999
4290,3944.983766078949
4291,3945.8317704200745
4292,3946.6777749061584
4293,3947.5387794971466
4294,3948.4167840480804
4295,3949.2987887859344
4296,3950.2017934322357
4297,3951.126798391342
4298,3952.0508031845093
4299,3952.938807964325
4300,3953.847812652588
4301,3954.778817653656
4302,3955.7468225955963
4303,3956.7298278808594
4304,3957.6508326530457
4305,3958.5538375377655
4306,3959.4778423309326
4307,3960.4118473529816
4308,3961.347852230072
4309,3962.2998571395874
4310,3963.2448620796204
4311,3964.192867040634
4312,3965.144872188568
4313,3966.094877243042
4314,3967.0098819732666
4315,3967.9028866291046
4316,3968.7958912849426
4317,3969.702896118164
4318,3970.6489012241364
4319,3971.6479063034058
4320,3972.674911737442
4321,3973.699917078018
4322,3974.7269225120544
4323,3975.7229278087616
4324,3976.684932947159
4325,3977.6359379291534
4326,3978.604943037033
4327,3979.5919482707977
4328,3980.6079535484314
4329,3981.630959033966
4330,3982.6449642181396
4331,3983.639969587326
4332,3984.5899744033813
4333,3985.527979373932
4334,3986.497984647751
4335,3987.4959897994995
4336,3988.5579953193665
4337,3989.649001121521
4338,3990.731006860733
4339,3991.7990124225616
4340,3992.8200178146362
4341,3993.8180232048035
4342,3994.855028629303
4343,3995.899034023285
4344,3996.9460394382477
4345,3998.001044988632
4346,3999.040050506592
4347,4000.0160558223724
4348,4000.986060857773
4349,4001.9890661239624
4350,4003.041071653366
4351,4004.122077226639
4352,4005.2000830173492
4353,4006.2750885486603
4354,4007.313094139099
4355,4008.313099384308
4356,4009.3011045455933
4357,4010.275109767914
4358,4011.26411485672
4359,4012.2591202259064
4360,4013.27312541008
4361,4014.3141310214996
4362,4015.35613656044
4363,4016.3911418914795
4364,4017.3931472301483
4365,4018.3681523799896
4366,4019.354157447815
4367,4020.368162870407
4368,4021.4131684303284
4369,4022.4771740436554
4370,4023.542179584503
4371,4024.5821850299835
4372,4025.57519030571
4373,4026.57919549942
4374,4027.5932009220123
4375,4028.6202063560486
4376,4029.660211801529
4377,4030.7002172470093
4378,4031.7352225780487
4379,4032.71222782135
4380,4033.6812329292297
4381,4034.693238258362
4382,4035.7422437667847
4383,4036.818249464035
4384,4037.8902549743652
4385,4038.9482605457306
4386,4039.9972660541534
4387,4041.0032715797424
4388,4041.99627661705
4389,4043.013282060623
4390,4044.044287443161
4391,4045.090292930603
4392,4046.1302983760834
4393,4047.1293036937714
4394,4048.1083087921143
4395,4049.118314266205
4396,4050.1523196697235
4397,4051.2003252506256
4398,4052.254330635071
4399,4053.3083362579346
4400,4054.3573417663574
4401,4055.3403470516205
4402,4056.30735206604
4403,4057.2923572063446
4404,4058.283362388611
4405,4059.292367696762
4406,4060.3193731307983
4407,4061.3513786792755
4408,4062.352383852005
4409,4063.318388938904
4410,4064.2843940258026
4411,4065.270399093628
4412,4066.273404598236
4413,4067.3004097938538
4414,4068.345415353775
4415,4069.406420946121
4416,4070.416426181793
4417,4071.4164316654205
4418,4072.4444370269775
4419,4073.4884424209595
4420,4074.5414481163025
4421,4075.593453645706
4422,4076.6234588623047
4423,4077.672464609146
4424,4078.7224700450897
4425,4079.770475625992
4426,4080.756480693817
4427,4081.720485687256
4428,4082.7274911403656
4429,4083.7564964294434
4430,4084.810502052307
4431,4085.8585076332092
4432,4086.902513027191
4433,4087.9085183143616
4434,4088.8795235157013
4435,4089.862528562546
4436,4090.860533952713
4437,4091.8695392608643
4438,4092.8775446414948
4439,4093.9075498580933
4440,4094.9155552387238
4441,4095.8975603580475
4442,4096.907565832138
4443,4097.923571109772
4444,4098.942576408386
4445,4099.96058177948
4446,4100.9795870780945
4447,4101.997592449188
4448,4102.982597827911
4449,4103.9246027469635
4450,4104.87960767746
4451,4105.848612785339
4452,4106.839617967606
4453,4107.8436233997345
4454,4108.833628416061
4455,4109.827633857727
4456,4110.808638811111
4457,4111.756644010544
4458,4112.682648897171
4459,4113.624653816223
4460,4114.575658798218
4461,4115.562664031982
4462,4116.580669403076
4463,4117.6026747226715
4464,4118.614680051804
4465,4119.589685201645
4466,4120.54369020462
4467,4121.534695386887
4468,4122.536700725555
4469,4123.576706171036
4470,4124.616711616516
4471,4125.644716978073
4472,4126.679722547531
4473,4127.7017278671265
4474,4128.680732965469
4475,4129.636738061905
4476,4130.601743221283
4477,4131.59174823761
4478,4132.627753734589
4479,4133.686759233475
4480,4134.761765003204
4481,4135.829770565033
4482,4136.856775999069
4483,4137.86278128624
4484,4138.894786834717
4485,4139.925792217255
4486,4140.973797798157
4487,4142.015803098679
4488,4143.017808437347
4489,4143.986813545227
4490,4144.9878187179565
4491,4145.996824026108
4492,4147.029829502106
4493,4148.079835176468
4494,4149.1298406124115
4495,4150.172846078873
4496,4151.196851491928
4497,4152.192856788635
4498,4153.198862075806
4499,4154.1758670806885
4500,4155.126872301102
4501,4156.0748772621155
4502,4157.036882162094
4503,4157.998887300491
4504,4158.961892366409
4505,4159.907897472382
4506,4160.87190246582
4507,4161.846907615662
4508,4162.798912525177
4509,4163.738917589188
4510,4164.701922655106
4511,4165.667927742004
4512,4166.65793299675
4513,4167.656938076019
4514,4168.650943279266
4515,4169.631948471069
4516,4170.590953588486
4517,4171.57695889473
4518,4172.585964202881
4519,4173.598969459534
4520,4174.615974903107
4521,4175.633980035782
4522,4176.604985237122
4523,4177.571990251541
4524,4178.559995651245
4525,4179.5660009384155
4526,4180.58700633049
4527,4181.62501168251
4528,4182.651017189026
4529,4183.656022310257
4530,4184.63702750206
4531,4185.646032810211
4532,4186.656038284302
4533,4187.6860435009
4534,4188.7200491428375
4535,4189.76505446434
4536,4190.769059896469
4537,4191.749064922333
4538,4192.763070344925
4539,4193.811075925827
4540,4194.885081529617
4541,4195.938086986542
4542,4196.996092557907
4543,4198.04709815979
4544,4199.0821034908295
4545,4200.104109048843
4546,4201.108114242554
4547,4202.096119403839
4548,4203.078124523163
4549,4204.0471296310425
4550,4205.0301349163055
4551,4206.000139951706
4552,4206.9381449222565
4553,4207.884150028229
4554,4208.839154958725
4555,4209.812160015106
4556,4210.824165344238
4557,4211.852170705795
4558,4212.8861763477325
4559,4213.916181564331
4560,4214.944187164307
4561,4215.974192380905
4562,4216.968197822571
4563,4217.981203079224
4564,4219.00820851326
4565,4220.037213802338
4566,4221.080219268799
4567,4222.108224868774
4568,4223.106230020523
4569,4224.133235454559
4570,4225.172240972519
4571,4226.210246324539
4572,4227.266252040863
4573,4228.329257488251
4574,4229.354262828827
4575,4230.401268482208
4576,4231.466274023056
4577,4232.5372796058655
4578,4233.611285448074
4579,4234.6882910728455
4580,4235.735296487808
4581,4236.761301994324
4582,4237.813307523727
4583,4238.894313097
4584,4239.96931886673
4585,4241.064324617386
4586,4242.122330188751
4587,4243.1783356666565
4588,4244.19634103775
4589,4245.19934630394
4590,4246.2153515815735
4591,4247.207356929779
4592,4248.163362026215
4593,4249.11336684227
4594,4250.101372241974
4595,4251.083377361298
4596,4252.05938243866
4597,4253.058387756348
4598,4254.049392938614
4599,4255.045398235321
4600,4256.038403511047
4601,4257.031408548355
4602,4258.038414001465
4603,4259.0364191532135
4604,4260.028424501419
4605,4261.006429433823
4606,4262.00643491745
4607,4263.01044011116
4608,4264.023445367813
4609,4265.040450811386
4610,4266.061456203461
4611,4267.0564613342285
4612,4268.063466787338
4613,4269.064471960068
4614,4270.107477426529
4615,4271.153482913971
4616,4272.171488285065
4617,4273.198493719101
4618,4274.256499290466
4619,4275.323504924774
4620,4276.402510643005
4621,4277.45351600647
4622,4278.473521471024
4623,4279.53652715683
4624,4280.5995326042175
4625,4281.665538311005
4626,4282.744544029236
4627,4283.782549381256
4628,4284.80055475235
4629,4285.856560468674
4630,4286.916565895081
4631,4288.0035717487335
4632,4289.092577457428
4633,4290.126582860947
4634,4291.18058848381
4635,4292.253593921661
4636,4293.334599733353
4637,4294.414605379105
4638,4295.47061085701
4639,4296.540616512299
4640,4297.604622125626
4641,4298.630627632141
4642,4299.639632940292
4643,4300.659638166428
4644,4301.685643672943
4645,4302.698648929596
4646,4303.6726541519165
4647,4304.683659553528
4648,4305.692664861679
4649,4306.700670003891
4650,4307.674675226212
4651,4308.67668056488
4652,4309.691685914993
4653,4310.720691204071
4654,4311.733696460724
4655,4312.719701766968
4656,4313.69970703125
4657,4314.695712089539
4658,4315.686717271805
4659,4316.643722295761
4660,4317.629727602005
4661,4318.607732772827
4662,4319.596737861633
4663,4320.5767431259155
4664,4321.526748180389
4665,4322.5027532577515
4666,4323.489758491516
4667,4324.489763736725
4668,4325.496768951416
4669,4326.515774488449
4670,4327.543779850006
4671,4328.5617852211
4672,4329.60179066658
4673,4330.650796175003
4674,4331.664801597595
4675,4332.68380689621
4676,4333.720812320709
4677,4334.76381778717
4678,4335.788823127747
4679,4336.830828666687
4680,4337.869834184647
4681,4338.904839515686
4682,4339.902844905853
4683,4340.923850297928
4684,4341.953855752945
4685,4343.004861116409
4686,4344.064866781235
4687,4345.081872224808
4688,4346.131877660751
4689,4347.198883295059
4690,4348.27788901329
4691,4349.363894701004
4692,4350.413900136948
4693,4351.492905855179
4694,4352.56991147995
4695,4353.632917165756
4696,4354.6779227256775
4697,4355.738928318024
4698,4356.79793381691
4699,4357.820939064026
4700,4358.87694478035
4701,4359.945950269699
4702,4360.967955827713
4703,4362.025961399078
4704,4363.108967065811
4705,4364.136972427368
4706,4365.21497797966
4707,4366.303983926773
4708,4367.322989225388
4709,4368.377994775772
4710,4369.44300031662
4711,4370.488005876541
4712,4371.5280113220215
4713,4372.593016862869
4714,4373.660022497177
4715,4374.685027837753
4716,4375.728033542633
4717,4376.789038896561
4718,4377.8560445308685
4719,4378.931050300598
4720,4379.957055807114
4721,4381.023061275482
4722,4382.09006690979
4723,4383.16507267952
4724,4384.233078241348
4725,4385.329083919525
4726,4386.439089775085
4727,4387.510095357895
4728,4388.607101202011
4729,4389.703106880188
4730,4390.778112649918
4731,4391.86011838913
4732,4392.951124191284
4733,4393.994129657745
4734,4394.973134756088
4735,4395.934139728546
4736,4396.943145036697
4737,4398.012150764465
4738,4399.13715672493
4739,4400.290162801743
4740,4401.42516875267
4741,4402.549174547195
4742,4403.6671805381775
4743,4404.71518611908
4744,4405.809191703796
4745,4406.907197475433
4746,4408.0022032260895
4747,4409.091208934784
4748,4410.140214681625
4749,4411.215220212936
4750,4412.300225973129
4751,4413.382231712341
4752,4414.469237327576
4753,4415.555243015289
4754,4416.649248838425
4755,4417.748254537582
4756,4418.822260379791
4757,4419.844265699387
4758,4420.914271354675
4759,4422.00227689743
4760,4423.126282930374
4761,4424.198288679123
4762,4425.257294178009
4763,4426.344299793243
4764,4427.425305604935
4765,4428.470311164856
4766,4429.5723168849945
4767,4430.656322479248
4768,4431.677327871323
4769,4432.7443335056305
4770,4433.828339338303
4771,4434.913344860077
4772,4435.956350564957
4773,4437.027356147766
4774,4438.120361804962
4775,4439.213367700577
4776,4440.2943732738495
4777,4441.387379169464
4778,4442.493384838104
4779,4443.600390672684
4780,4444.6903965473175
4781,4445.796402215958
4782,4446.908408164978
4783,4448.013413906097
4784,4449.128419876099
4785,4450.2424256801605
4786,4451.329431295395
4787,4452.382436990738
4788,4453.471442699432
4789,4454.545448303223
4790,4455.581453800201
4791,4456.6814596652985
4792,4457.763465166092
4793,4458.814470767975
4794,4459.911476612091
4795,4461.010482311249
4796,4462.08748793602
4797,4463.188493728638
4798,4464.261499404907
4799,4465.311505079269
4800,4466.392510652542
4801,4467.455516338348
4802,4468.480521678925
4803,4469.530527114868
4804,4470.586532831192
4805,4471.61753821373
4806,4472.692543745041
4807,4473.775549650192
4808,4474.841555118561
4809,4475.969561100006
4810,4477.070566892624
4811,4478.141572475433
4812,4479.232578277588
4813,4480.316583871841
4814,4481.372589588165
4815,4482.447595119476
4816,4483.539600849152
4817,4484.585606336594
4818,4485.621611833572
4819,4486.68861746788
4820,4487.738623142242
4821,4488.73562836647
4822,4489.774633646011
4823,4490.852639436722
4824,4491.947645187378
4825,4493.028650999069
4826,4494.060656309128
4827,4495.14266204834
4828,4496.236667871475
4829,4497.313673496246
4830,4498.3746790885925
4831,4499.464684724808
4832,4500.54669046402
4833,4501.631696224213
4834,4502.720701932907
4835,4503.76770734787
4836,4504.856713056564
4837,4505.977719068527
4838,4507.100724935532
4839,4508.20473074913
4840,4509.257736206055
4841,4510.339741945267
4842,4511.396747589111
4843,4512.411752939224
4844,4513.463758468628
4845,4514.54376411438
4846,4515.634769916534
4847,4516.718775510788
4848,4517.824781417847
4849,4518.942787408829
4850,4520.033792972565
4851,4521.086798667908
4852,4522.184804439545
4853,4523.2788100242615
4854,4524.380815982819
4855,4525.461821556091
4856,4526.500827074051
4857,4527.507832288742
4858,4528.5208377838135
4859,4529.465842723846
4860,4530.403847694397
4861,4531.331852436066
4862,4532.256857395172
4863,4533.212862491608
4864,4534.194867610931
4865,4535.176872730255
4866,4536.16387796402
4867,4537.176883220673
4868,4538.183888673782
4869,4539.167893648148
4870,4540.2008991241455
4871,4541.248904705048
4872,4542.320910453796
4873,4543.3619158267975
4874,4544.353921175003
4875,4545.369926452637
4876,4546.394931793213
4877,4547.408937215805
4878,4548.46694278717
4879,4549.4969482421875
4880,4550.499953508377
4881,4551.518958806992
4882,4552.55096411705
4883,4553.602969646454
4884,4554.613975048065
4885,4555.608980417252
4886,4556.650985717773
4887,4557.720991373062
4888,4558.725996732712
4889,4559.771002292633
4890,4560.834007740021
4891,4561.880013227463
4892,4562.9320187568665
4893,4564.002024412155
4894,4565.062030076981
4895,4566.084035396576
4896,4567.150041103363
4897,4568.2030465602875
4898,4569.261052131653
4899,4570.340057849884
4900,4571.419063568115
4901,4572.480069160461
4902,4573.554074764252
4903,4574.630080461502
4904,4575.698086023331
4905,4576.785091876984
4906,4577.847097396851
4907,4578.896102905273
4908,4579.976108551025
4909,4581.056114196777
4910,4582.1171197891235
4911,4583.221125602722
4912,4584.325131416321
4913,4585.424137353897
4914,4586.53714299202
4915,4587.6041486263275
4916,4588.6751544475555
4917,4589.757159948349
4918,4590.855165719986
4919,4591.924171447754
4920,4593.015177249908
4921,4594.089182853699
4922,4595.153188467026
4923,4596.239194154739
4924,4597.332200050354
4925,4598.399205446243
4926,4599.5012114048
4927,4600.5782170295715
4928,4601.674222707748
4929,4602.763228416443
4930,4603.815233945847
4931,4604.887239694595
4932,4605.94424533844
4933,4607.029250860214
4934,4608.096256494522
4935,4609.168262243271
4936,4610.246267795563
4937,4611.295273542404
4938,4612.345278978348
4939,4613.395284414291
4940,4614.436290025711
4941,4615.50429558754
4942,4616.566301107407
4943,4617.595306634903
4944,4618.675312280655
4945,4619.748317956924
4946,4620.798323392868
4947,4621.895329236984
4948,4622.98733496666
4949,4624.064340591431
4950,4625.159346342087
4951,4626.237352132797
4952,4627.312357664108
4953,4628.386363506317
4954,4629.471369028091
4955,4630.556374788284
4956,4631.642380475998
4957,4632.695386171341
4958,4633.759391784668
4959,4634.833397388458
4960,4635.875402927399
4961,4636.938408374786
4962,4638.007414102554
4963,4639.02941942215
4964,4640.10342502594
4965,4641.183430671692
4966,4642.223436355591
4967,4643.327441930771
4968,4644.437447786331
4969,4645.492453336716
4970,4646.580459117889
4971,4647.667464971542
4972,4648.73247051239
4973,4649.825476169586
4974,4650.910481929779
4975,4651.98748755455
4976,4653.081493377686
4977,4654.164499044418
4978,4655.224504709244
4979,4656.302510261536
4980,4657.367516040802
4981,4658.439521551132
4982,4659.509527206421
4983,4660.562532663345
4984,4661.644538402557
4985,4662.701544046402
4986,4663.787549734116
4987,4664.87855553627
4988,4665.943561077118
4989,4667.043566942215
4990,4668.13757276535
4991,4669.202578306198
4992,4670.2895839214325
4993,4671.380589723587
4994,4672.443595409393
4995,4673.520601034164
4996,4674.594606637955
4997,4675.629611968994
4998,4676.704617738724
4999,4677.783623456955
5000,4678.824628829956
5001,4679.900634527206
5002,4680.975640296936
5003,4682.0106456279755
5004,4683.084651231766
5005,4684.171657085419
5006,4685.206662416458
5007,4686.280668258667
5008,4687.337673664093
5009,4688.361679077148
5010,4689.4096846580505
5011,4690.463690280914
5012,4691.487695455551
5013,4692.546701192856
5014,4693.612706661224
5015,4694.680712461472
5016,4695.759717941284
5017,4696.828723669052
5018,4697.892729282379
5019,4698.965734958649
5020,4700.0307404994965
5021,4701.095746040344
5022,4702.172751903534
5023,4703.2277574539185
5024,4704.3027629852295
5025,4705.386768817902
5026,4706.4357743263245
5027,4707.518779993057
5028,4708.60378575325
5029,4709.6617913246155
5030,4710.753797054291
5031,4711.845802783966
5032,4712.892808198929
5033,4713.974813938141
5034,4715.063819646835
5035,4716.103825092316
5036,4717.182830810547
5037,4718.259836435318
5038,4719.313842058182
5039,4720.409847736359
5040,4721.495853424072
5041,4722.559859037399
5042,4723.657864809036
5043,4724.735870599747
5044,4725.806876182556
5045,4726.906882047653
5046,4727.994887828827
5047,4729.088893413544
5048,4730.197899341583
5049,4731.258904933929
5050,4732.363910675049
5051,4733.458916425705
5052,4734.5319221019745
5053,4735.616927862167
5054,4736.674933433533
5055,4737.748939037323
5056,4738.786944627762
5057,4739.797949790955
5058,4740.827955245972
5059,4741.880960941315
5060,4742.889966249466
5061,4743.947971820831
5062,4745.020977258682
5063,4746.060982942581
5064,4747.146988630295
5065,4748.255994319916
5066,4749.3620002269745
5067,4750.446005821228
5068,4751.547011613846
5069,4752.632017374039
5070,4753.710023164749
5071,4754.795028686523
5072,4755.886034488678
5073,4756.957040071487
5074,4758.052046060562
5075,4759.138051748276
5076,4760.128056764603
5077,4761.136062145233
5078,4762.156067609787
5079,4763.140072822571
5080,4764.178078174591
5081,4765.224083662033
5082,4766.261089086533
5083,4767.32909488678
5084,4768.40310049057
5085,4769.432105779648
5086,4770.495111465454
5087,4771.55411696434
5088,4772.622122526169
5089,4773.664128065109
5090,4774.749133825302
5091,4775.839139461517
5092,4776.89214515686
5093,4777.954150676727
5094,4779.001156330109
5095,4780.0251615047455
5096,4781.076167106628
5097,4782.12217259407
5098,4783.128177881241
5099,4784.177183389664
5100,4785.246189117432
5101,4786.273194551468
5102,4787.35120010376
5103,4788.442205905914
5104,4789.509211540222
5105,4790.490216732025
5106,4791.482221841812
5107,4792.417226791382
5108,4793.0642302036285
5109,4794.090235710144
5110,4794.9792404174805
5111,4795.8362448215485
5112,4796.682249307632
5113,4797.533253669739
5114,4798.362258195877
5115,4799.173262357712
5116,4799.9912667274475
5117,4800.784271001816
5118,4801.569274902344
5119,4802.331279039383
5120,4803.085283041
5121,4803.825286865234
5122,4804.556290626526
5123,4805.269294500351
5124,4805.979298114777
5125,4806.6773018836975
5126,4807.375305652618
5127,4808.075309276581
5128,4808.783313035965
5129,4809.478316545486
5130,4810.175320386887
5131,4810.872323989868
5132,4811.57332777977
5133,4812.903334617615
5134,4814.41234254837
