,ECG_peaks
0,0.0
1,0.672992467880249
2,1.348984956741333
3,2.032977342605591
4,2.7259697914123535
5,3.474961519241333
6,4.196953535079956
7,4.8979456424713135
8,5.61593770980835
9,6.321929931640625
10,7.006922245025635
11,7.663914918899536
12,8.307907819747925
13,8.937901020050049
14,9.566894054412842
15,10.196887016296387
16,10.841879844665527
17,11.531872272491455
18,12.297863721847534
19,13.018855571746826
20,13.719847917556763
21,14.398840427398682
22,15.092832803726196
23,15.77382516860962
24,16.445817708969116
25,17.102810382843018
26,17.745803356170654
27,18.368796348571777
28,18.989789485931396
29,19.60678267478943
30,20.215775966644287
31,20.839768886566162
32,21.473762035369873
33,22.126754760742188
34,22.787747383117676
35,23.501739501953125
36,24.24773120880127
37,24.972723245620728
38,25.66571545600891
39,26.324708223342896
40,26.97770094871521
41,27.61769390106201
42,28.2616868019104
43,28.912679433822632
44,29.571672201156616
45,30.231664896011353
46,30.901657581329346
47,31.5766499042511
48,32.27064228057861
49,32.96063470840454
50,33.62662720680237
51,34.293619871139526
52,34.984612226486206
53,35.71260404586792
54,36.453595876693726
55,37.18158793449402
56,37.882580041885376
57,38.56357264518738
58,39.23256516456604
59,39.89555788040161
60,40.55155062675476
61,41.20754313468933
62,41.88853573799133
63,42.546528339385986
64,43.21852087974548
65,43.89651346206665
66,44.59750556945801
67,45.30049777030945
68,45.9804904460907
69,46.664482831954956
70,47.355475187301636
71,48.06446719169617
72,48.74645972251892
73,49.46545171737671
74,50.21644330024719
75,51.024434328079224
76,51.81342577934265
77,52.58441710472107
78,53.377408266067505
79,54.155399799346924
80,54.90139150619507
81,55.62138342857361
82,56.351375341415405
83,57.112366914749146
84,57.94535779953003
85,58.78134846687317
86,59.614339113235474
87,60.45333003997803
88,61.300320625305176
89,62.15031123161316
90,62.995301723480225
91,63.86329221725464
92,64.74828243255615
93,65.62027263641357
94,66.47026324272156
95,67.28325414657593
96,68.11224508285522
97,68.95723557472229
98,69.81022620201111
99,70.60021734237671
100,71.41020846366882
101,72.20819973945618
102,73.0051908493042
103,73.7521824836731
104,74.47717452049255
105,75.23216605186462
106,76.06715679168701
107,76.94614720344543
108,77.78513789176941
109,78.5791289806366
110,79.35312032699585
111,80.11311197280884
112,80.83510398864746
113,81.56809592247009
114,82.31608748435974
115,83.10807871818542
116,83.87607026100159
117,84.73106074333191
118,85.58005142211914
119,86.40704226493835
120,87.16903376579285
121,87.92202544212341
122,88.64601755142212
123,89.35200953483582
124,90.07200169563293
125,90.77999377250671
126,91.51298570632935
127,92.28397703170776
128,93.16996741294861
129,94.07195734977722
130,94.93394780158997
131,95.82993769645691
132,96.73292779922485
133,97.56091856956482
134,98.3959093093872
135,99.215900182724
136,99.99389171600342
137,100.7188835144043
138,101.43587565422058
139,102.15086770057678
140,102.88685965538025
141,103.65185117721558
142,104.38484287261963
143,105.1488344669342
144,105.94982552528381
145,106.73481702804565
146,107.4678087234497
147,108.20080065727234
148,108.92979264259338
149,109.6577844619751
150,110.36777663230896
151,111.05876898765564
152,111.7367615699768
153,112.4147539138794
154,113.0957465171814
155,113.78573870658875
156,114.48073101043701
157,115.20172309875488
158,115.90571522712708
159,116.60870742797852
160,117.31369972229004
161,118.01969194412231
162,118.70568418502808
163,119.38867664337158
164,120.06966924667358
165,120.74566173553467
166,121.41665410995483
167,122.09064674377441
168,122.77663922309875
169,123.4666314125061
170,124.15162396430969
171,124.86461591720581
172,125.60460782051086
173,126.34159970283508
174,127.04059195518494
175,127.74958395957947
176,128.47257590293884
177,129.2275676727295
178,129.97655940055847
179,130.7525508403778
180,131.53354215621948
181,132.33553314208984
182,133.11452460289001
183,133.863516330719
184,134.63050770759583
185,135.409499168396
186,136.15349078178406
187,136.86848282814026
188,137.59847474098206
189,138.34746646881104
190,139.0944583415985
191,139.8264501094818
192,140.58144187927246
193,141.35643315315247
194,142.13942456245422
195,142.90241599082947
196,143.6634075641632
197,144.42239928245544
198,145.16139101982117
199,145.88038301467896
200,146.60337495803833
201,147.3353669643402
202,148.0843586921692
203,148.81935048103333
204,149.5423424243927
205,150.2683343887329
206,151.00132632255554
207,151.7223184108734
208,152.4263105392456
209,153.15330243110657
210,153.8882942199707
211,154.6332859992981
212,155.35327816009521
213,156.07527017593384
214,156.7892620563507
215,157.5022542476654
216,158.20324635505676
217,158.89023876190186
218,159.57923126220703
219,160.28822326660156
220,161.01821517944336
221,161.72220754623413
222,162.4341995716095
223,163.1431918144226
224,163.86518383026123
225,164.5661759376526
226,165.27216815948486
227,165.9791603088379
228,166.71315217018127
229,167.40814447402954
230,168.1291365623474
231,168.87512826919556
232,169.61712002754211
233,170.32011222839355
234,170.9971046447754
235,171.64509749412537
236,172.3090901374817
237,173.23007988929749
238,174.07907056808472
239,174.94506096839905
240,175.78005170822144
241,176.56004309654236
242,177.297034740448
243,178.00202703475952
244,178.6930193901062
245,179.38801169395447
246,180.1060037612915
247,180.7949960231781
248,181.47898840904236
249,182.2059805393219
250,182.9229724407196
251,183.61996483802795
252,184.30295729637146
253,184.96294975280762
254,185.61394262313843
255,186.2619354724884
256,186.90292835235596
257,187.53492140769958
258,188.16391444206238
259,188.7774076461792
260,189.39090085029602
261,189.99289417266846
262,190.59588742256165
263,191.20188069343567
264,191.8018741607666
265,192.42086720466614
266,193.03686046600342
267,193.65285348892212
268,194.2578468322754
269,194.86284017562866
270,195.4708333015442
271,196.0918264389038
272,196.73481941223145
273,197.39681196212769
274,198.05080485343933
275,198.6897976398468
276,199.31179094314575
277,199.91978406906128
278,200.52177739143372
279,201.11377096176147
280,201.70576429367065
281,202.29775762557983
282,202.89975094795227
283,203.53474402427673
284,204.18573689460754
285,204.8697292804718
286,205.56272149085999
287,206.25971388816833
288,206.91870641708374
289,207.60769891738892
290,208.27669143676758
291,208.91968441009521
292,209.5396773815155
293,210.15567064285278
294,210.7636640071869
295,211.36465716362
296,211.96065068244934
297,212.56864380836487
298,213.1856369972229
299,213.83862972259521
300,214.51962232589722
301,215.18661499023438
302,215.83660769462585
303,216.45860075950623
304,217.06659412384033
305,217.65458750724792
306,218.2235813140869
307,218.78157496452332
308,219.32956886291504
309,219.87156295776367
310,220.4155569076538
311,220.9715507030487
312,221.56054425239563
313,222.15553760528564
314,222.75053095817566
315,223.3185248374939
316,223.86951851844788
317,224.41651248931885
318,224.96850633621216
319,225.51450037956238
320,226.0664942264557
321,226.629487991333
322,227.198481798172
323,227.76047539710999
324,228.3344690799713
325,228.91046285629272
326,229.4894564151764
327,230.05944991111755
328,230.6294436454773
329,231.19943737983704
330,231.77443099021912
331,232.3604245185852
332,232.9424180984497
333,233.5284116268158
334,234.11940503120422
335,234.71739840507507
336,235.3083918094635
337,235.91338515281677
338,236.52337837219238
339,237.1503713130951
340,237.76336455345154
341,238.38435769081116
342,239.01135087013245
343,239.63334393501282
344,240.24333715438843
345,240.85533046722412
346,241.46132373809814
347,242.08231687545776
348,242.69430994987488
349,243.33130288124084
350,243.9852957725525
351,244.65128827095032
352,245.30928111076355
353,245.9692735671997
354,246.63226628303528
355,247.28625917434692
356,247.93725180625916
357,248.5952446460724
358,249.26223707199097
359,249.93622970581055
360,250.79222011566162
361,251.56121158599854
362,252.32820320129395
363,253.04619526863098
364,253.75618743896484
365,254.4571795463562
366,255.15617179870605
367,255.83416438102722
368,256.50915694236755
369,257.1881494522095
370,257.89814138412476
371,258.6181335449219
372,259.33712553977966
373,260.0641174316406
374,260.81610918045044
375,261.5681006908417
376,262.3230924606323
377,263.02608466148376
378,263.73807668685913
379,264.45606875419617
380,265.18306064605713
381,265.8870530128479
382,266.60104489326477
383,267.3190369606018
384,268.0580289363861
385,268.77402091026306
386,269.4880130290985
387,270.1980051994324
388,270.87799763679504
389,271.5549900531769
390,272.2319827079773
391,272.9019751548767
392,273.5719678401947
393,274.24096035957336
394,274.92795276641846
395,275.59794521331787
396,276.27593779563904
397,276.93993043899536
398,277.586923122406
399,278.2399160861969
400,278.9039087295532
401,279.56590127944946
402,280.22289395332336
403,280.88188672065735
404,281.53887939453125
405,282.1948721408844
406,282.8568649291992
407,283.53385734558105
408,284.2138497829437
409,284.8618426322937
410,285.49383568763733
411,286.1248285770416
412,286.7448217868805
413,287.3738148212433
414,288.00180768966675
415,288.62880086898804
416,289.25479388237
417,289.88978695869446
418,290.51677989959717
419,291.1487729549408
420,291.7887659072876
421,292.42575883865356
422,293.0637516975403
423,293.6937446594238
424,294.3287377357483
425,294.97373056411743
426,295.64372301101685
427,296.33971548080444
428,297.07570719718933
429,297.82569885253906
430,298.5246911048889
431,299.2156834602356
432,299.892676115036
433,300.544668674469
434,301.1846616268158
435,301.831654548645
436,302.47864723205566
437,303.10964035987854
438,303.74163341522217
439,304.37262630462646
440,305.0046193599701
441,305.6546120643616
442,306.3256046772003
443,307.06059646606445
444,307.8065881729126
445,308.4895806312561
446,309.1915729045868
447,309.8895652294159
448,310.5835576057434
449,311.26254987716675
450,311.957542181015
451,312.66453433036804
452,313.3635265827179
453,314.0385191440582
454,314.71951174736023
455,315.38550424575806
456,316.03349709510803
457,316.66949009895325
458,317.3024830818176
459,317.9394760131836
460,318.5964686870575
461,319.279461145401
462,319.9924533367157
463,320.6834454536438
464,321.37843775749207
465,322.0624303817749
466,322.74642276763916
467,323.43541502952576
468,324.12440752983093
469,324.80539989471436
470,325.4723925590515
471,326.13238525390625
472,326.792377948761
473,327.4433705806732
474,328.0953633785248
475,328.7503561973572
476,329.42834854125977
477,330.10634112358093
478,330.80033349990845
479,331.4863257408142
480,332.15531849861145
481,332.80131125450134
482,333.43030428886414
483,334.07929706573486
484,334.7222900390625
485,335.3702828884125
486,336.0122756958008
487,336.6412687301636
488,337.2712616920471
489,337.89425468444824
490,338.4992480278015
491,339.09524154663086
492,339.68123507499695
493,340.2642285823822
494,340.8592219352722
495,341.4902148246765
496,342.1422076225281
497,342.80120038986206
498,343.4931926727295
499,344.2001848220825
500,344.91117691993713
501,345.5931694507599
502,346.27916193008423
503,346.95615434646606
504,347.6381468772888
505,348.3101394176483
506,348.9861319065094
507,349.6501245498657
508,350.32911705970764
509,351.0131094455719
510,351.700101852417
511,352.38209414482117
512,353.05508685112
513,353.7060794830322
514,354.3390724658966
515,354.96706557273865
516,355.6010584831238
517,356.24005150794983
518,356.89704418182373
519,357.5490369796753
520,358.2100296020508
521,358.8720223903656
522,359.5590145587921
523,360.23900723457336
524,360.93599939346313
525,361.65399146080017
526,362.40498304367065
527,363.1249752044678
528,363.83696722984314
529,364.535959482193
530,365.20295214653015
531,365.868944644928
532,366.52793741226196
533,367.17593026161194
534,367.8239231109619
535,368.4829156398773
536,369.15990829467773
537,369.83890080451965
538,370.5478928089142
539,371.2718849182129
540,372.0148766040802
541,372.72686862945557
542,373.44386076927185
543,374.1428530216217
544,374.8448452949524
545,375.5278377532959
546,376.2278299331665
547,376.9428219795227
548,377.67781376838684
549,378.39680576324463
550,379.13579773902893
551,379.87078952789307
552,380.58278155326843
553,381.2687740325928
554,381.941766500473
555,382.622759103775
556,383.3117513656616
557,384.0007438659668
558,384.71273589134216
559,385.43372797966003
560,386.18371963500977
561,386.90871143341064
562,387.64570331573486
563,388.3676953315735
564,389.0636875629425
565,389.7546799182892
566,390.43467235565186
567,391.10866498947144
568,391.75965785980225
569,392.4096505641937
570,393.05864334106445
571,393.7216360569
572,394.38962864875793
573,395.0716209411621
574,395.7976129055023
575,396.53460478782654
576,397.2535967826843
577,397.97758889198303
578,398.68858098983765
579,399.36257338523865
580,400.0205662250519
581,400.6605591773987
582,401.29755210876465
583,401.930545091629
584,402.5735378265381
585,403.2165307998657
586,403.8855233192444
587,404.55451583862305
588,405.22250843048096
589,405.91350078582764
590,406.58649349212646
591,407.2504861354828
592,407.9074788093567
593,408.5244719982147
594,409.14146518707275
595,409.7694580554962
596,410.4224510192871
597,411.0554440021515
598,411.6914367675781
599,412.3154299259186
600,412.9474229812622
601,413.56641602516174
602,414.17640924453735
603,414.7824025154114
604,415.39439582824707
605,415.99938917160034
606,416.5993824005127
607,417.2133755683899
608,417.8313686847687
609,418.4613618850708
610,419.1113545894623
611,419.7833471298218
612,420.43533992767334
613,421.0873327255249
614,421.73432540893555
615,422.37831830978394
616,423.0133113861084
617,423.63730454444885
618,424.2632975578308
619,424.9162902832031
620,425.60628271102905
621,426.2852749824524
622,426.98626732826233
623,427.69325947761536
624,428.41925144195557
625,429.1022439002991
626,429.7872362136841
627,430.4582288265228
628,431.12422156333923
629,431.7702143192291
630,432.4012072086334
631,433.02220034599304
632,433.6501934528351
633,434.2801864147186
634,434.9101793766022
635,435.5401725769043
636,436.1841654777527
637,436.8581578731537
638,437.52715039253235
639,438.20414304733276
640,438.87613558769226
641,439.55012798309326
642,440.2031207084656
643,440.84511375427246
644,441.48610663414
645,442.1280994415283
646,442.7650923728943
647,443.41308522224426
648,444.07607793807983
649,444.7340705394745
650,445.38806343078613
651,446.0510559082031
652,446.70504879951477
653,447.3450417518616
654,447.9640347957611
655,448.5690281391144
656,449.17202138900757
657,449.7890145778656
658,450.41900753974915
659,451.06100058555603
660,451.70299339294434
661,452.32798647880554
662,452.9169797897339
663,453.5029733181
664,454.1139667034149
665,454.7129600048065
666,455.3119533061981
667,455.91594672203064
668,456.51293992996216
669,457.10993337631226
670,457.7149267196655
671,458.3219199180603
672,458.9269132614136
673,459.5139067173004
674,460.09190034866333
675,460.67889380455017
676,461.276887178421
677,461.8908803462982
678,462.5138735771179
679,463.1398665904999
680,463.76385974884033
681,464.3938527107239
682,465.0248456001282
683,465.6508388519287
684,466.2578320503235
685,466.83882570266724
686,467.40981936454773
687,468.00281262397766
688,468.6368057727814
689,469.2897984981537
690,469.93779134750366
691,470.5417845249176
692,471.12477803230286
693,471.7117714881897
694,472.31876492500305
695,472.9467577934265
696,473.57875084877014
697,474.1797442436218
698,474.7627377510071
699,475.33973145484924
700,475.9267249107361
701,476.52771830558777
702,477.14171147346497
703,477.7457046508789
704,478.33269810676575
705,478.9206917285919
706,479.5256850719452
707,480.1396782398224
708,480.7536714076996
709,481.35166478157043
710,481.9406580924988
711,482.53965163230896
712,483.1436448097229
713,483.73963832855225
714,484.3266317844391
715,484.90162539482117
716,485.48061895370483
717,486.06261253356934
718,486.6456060409546
719,487.2345995903015
720,487.8245930671692
721,488.4085865020752
722,489.0005798339844
723,489.60357332229614
724,490.22856640815735
725,490.8435595035553
726,491.47155261039734
727,492.10054564476013
728,492.75553822517395
729,493.40853118896484
730,494.0405240058899
731,494.6785171031952
732,495.333509683609
733,495.98050260543823
734,496.65049505233765
735,497.2984879016876
736,497.94948077201843
737,498.58047366142273
738,499.2094666957855
739,499.8364598751068
740,500.4914526939392
741,501.1484453678131
742,501.8004381656647
743,502.46143078804016
744,503.1624228954315
745,503.87141513824463
746,504.56940746307373
747,505.25039982795715
748,505.9233922958374
749,506.5803852081299
750,507.2293779850006
751,507.8713707923889
752,508.5223636627197
753,509.17535638809204
754,509.8383491039276
755,510.4953417778015
756,511.1603343486786
757,511.84032678604126
758,512.5293190479279
759,513.2153115272522
760,513.8843040466309
761,514.5502967834473
762,515.2202892303467
763,515.8992817401886
764,516.5712742805481
765,517.2192671298981
766,517.8692600727081
767,518.5222527980804
768,519.1942453384399
769,519.8862376213074
770,520.5952298641205
771,521.2872221469879
772,521.9752144813538
773,522.6322071552277
774,523.3061997890472
775,523.9961919784546
776,524.6851844787598
777,525.3841767311096
778,526.0781688690186
779,526.7601613998413
780,527.4151542186737
781,528.0641469955444
782,528.7321395874023
783,529.4421317577362
784,530.1521239280701
785,530.8401162624359
786,531.5151088237762
787,532.1561017036438
788,532.7920944690704
789,533.4220876693726
790,534.0560805797577
791,534.6900734901428
792,535.3250665664673
793,535.9600594043732
794,536.6040523052216
795,537.2520451545715
796,537.9150378704071
797,538.603030204773
798,539.3200221061707
799,540.0680139064789
800,540.8490052223206
801,541.6339964866638
802,542.4139878749847
803,543.1869792938232
804,543.9329710006714
805,544.6629629135132
806,545.3849549293518
807,546.1099469661713
808,546.8559386730194
809,547.6009304523468
810,548.363921880722
811,549.1189136505127
812,549.8719053268433
813,550.6478967666626
814,551.4148881435394
815,552.1708798408508
816,552.9368712902069
817,553.6868629455566
818,554.4378547668457
819,555.1678464412689
820,555.8918385505676
821,556.6338303089142
822,557.37482213974
823,558.1108138561249
824,558.8548057079315
825,559.5877976417542
826,560.3007895946503
827,561.0077817440033
828,561.7217738628387
829,562.4527657032013
830,563.165757894516
831,563.883749961853
832,564.5937421321869
833,565.3167340755463
834,566.0117263793945
835,566.7247185707092
836,567.4477105140686
837,568.1827023029327
838,568.8866944313049
839,569.5906867980957
840,570.3016788959503
841,571.0166709423065
842,571.7206630706787
843,572.4316551685333
844,573.1606471538544
845,573.8946390151978
846,574.6036310195923
847,575.3116233348846
848,576.0216155052185
849,576.7186076641083
850,577.3946001529694
851,578.1035923957825
852,578.823584318161
853,579.5595762729645
854,580.279568195343
855,581.0145599842072
856,581.7495520114899
857,582.5045435428619
858,583.244535446167
859,583.9445276260376
860,584.647519826889
861,585.3555119037628
862,586.044504404068
863,586.7154967784882
864,587.3874895572662
865,588.0794818401337
866,588.8044736385345
867,589.5254657268524
868,590.2464578151703
869,590.9734497070312
870,591.7104415893555
871,592.4464333057404
872,593.2004249095917
873,593.9554166793823
874,594.6974084377289
875,595.4394001960754
876,596.2043917179108
877,596.9823830127716
878,597.7453746795654
879,598.4893662929535
880,599.2273581027985
881,599.9603500366211
882,600.7013418674469
883,601.4543335437775
884,602.2233250141144
885,603.0143163204193
886,603.7633080482483
887,604.522299528122
888,605.288290977478
889,606.0622825622559
890,606.8282740116119
891,607.5612659454346
892,608.2832577228546
893,609.0122497081757
894,609.7442417144775
895,610.4932334423065
896,611.2432250976562
897,611.9742169380188
898,612.720208644867
899,613.460200548172
900,614.193192243576
901,614.9081842899323
902,615.6441762447357
903,616.3901679515839
904,617.178159236908
905,617.9761505126953
906,618.7301421165466
907,619.4691338539124
908,620.2061257362366
909,620.929117679596
910,621.6511096954346
911,622.3941013813019
912,623.1530930995941
913,623.9090845584869
914,624.6300766468048
915,625.3860683441162
916,626.1610596179962
917,626.966050863266
918,627.7030425071716
919,628.4170346260071
920,629.1210267543793
921,629.8430187702179
922,630.5660109519958
923,631.2670030593872
924,631.9799952507019
925,632.7249870300293
926,633.483978509903
927,634.2159705162048
928,634.9929618835449
929,635.7949528694153
930,636.608943939209
931,637.3489356040955
932,638.0749275684357
933,638.7789199352264
934,639.4759120941162
935,640.1459047794342
936,640.8148972988129
937,641.5038895606995
938,642.2938809394836
939,643.1198716163635
940,643.9078629016876
941,644.7258539199829
942,645.5418448448181
943,646.321836233139
944,647.0638279914856
945,647.7988197803497
946,648.5238118171692
947,649.2378039360046
948,649.9227962493896
949,650.6327884197235
950,651.3497805595398
951,652.0857722759247
952,652.8197641372681
953,653.568755865097
954,654.3207476139069
955,655.0607392787933
956,655.7837314605713
957,656.4747235774994
958,657.1647160053253
959,657.8577084541321
960,658.573700428009
961,659.2876925468445
962,660.0176844596863
963,660.7476763725281
964,661.5126678943634
965,662.2396597862244
966,662.9516518115997
967,663.6626439094543
968,664.3736362457275
969,665.0676283836365
970,665.739620923996
971,666.4196133613586
972,667.1146056652069
973,667.8405976295471
974,668.5645897388458
975,669.3045814037323
976,670.0515732765198
977,670.8045649528503
978,671.5135569572449
979,672.2105493545532
980,672.9095416069031
981,673.6105337142944
982,674.295526266098
983,674.9665186405182
984,675.628511428833
985,676.313503742218
986,677.0174958705902
987,677.7084882259369
988,678.4114804267883
989,679.1324725151062
990,679.8634643554688
991,680.5604567527771
992,681.2674489021301
993,681.96644115448
994,682.6554334163666
995,683.3124263286591
996,683.9484190940857
997,684.5564124584198
998,685.1904053688049
999,685.8453981876373
1000,686.5333905220032
1001,687.2043831348419
1002,687.8783755302429
1003,688.5503680706024
1004,689.1773612499237
1005,689.7993543148041
1006,690.419347524643
1007,691.0473403930664
1008,691.6813335418701
1009,692.3003265857697
1010,692.9283196926117
1011,693.5703125
1012,694.2203052043915
1013,694.8712980747223
1014,695.5132908821106
1015,696.1632838249207
1016,696.8232765197754
1017,697.5042688846588
1018,698.1752614974976
1019,698.8282542228699
1020,699.4822468757629
1021,700.1422395706177
1022,700.8342320919037
1023,701.5742237567902
1024,702.2792160511017
1025,703.0292077064514
1026,703.7791993618011
1027,704.5101912021637
1028,705.2221834659576
1029,705.8951759338379
1030,706.5971682071686
1031,707.3131601810455
1032,708.016152381897
1033,708.7041447162628
1034,709.3751373291016
1035,710.0571298599243
1036,710.7441222667694
1037,711.4851138591766
1038,712.2291057109833
1039,712.9880971908569
1040,713.7570886611938
1041,714.558079957962
1042,715.3630709648132
1043,716.0780630111694
1044,716.7850551605225
1045,717.4780476093292
1046,718.1690399646759
1047,718.8540322780609
1048,719.5800242424011
1049,720.3390157222748
1050,721.1330070495605
1051,721.8799986839294
1052,722.6299903392792
1053,723.3799819946289
1054,724.1489737033844
1055,724.8689656257629
1056,725.6169574260712
1057,726.3679490089417
1058,727.1179406642914
1059,727.8249328136444
1060,728.535924911499
1061,729.2439172267914
1062,729.9759089946747
1063,730.6959009170532
1064,731.4098930358887
1065,732.1238851547241
1066,732.86687707901
1067,733.5958688259125
1068,734.3228607177734
1069,735.0638525485992
1070,735.8148443698883
1071,736.5448362827301
1072,737.249828338623
1073,737.9528205394745
1074,738.6738126277924
1075,739.4128043651581
1076,740.1267964839935
1077,740.8547885417938
1078,741.615779876709
1079,742.3997712135315
1080,743.1377630233765
1081,743.890754699707
1082,744.6447463035583
1083,745.4087378978729
1084,746.1327300071716
1085,746.8527219295502
1086,747.584713935852
1087,748.3467054367065
1088,749.086697101593
1089,749.8496887683868
1090,750.6246800422668
1091,751.4276711940765
1092,752.200662612915
1093,752.9416544437408
1094,753.7126460075378
1095,754.4896373748779
1096,755.2396290302277
1097,755.9676208496094
1098,756.7196125984192
1099,757.5386035442352
1100,758.358594417572
1101,759.1265859603882
1102,759.9055771827698
1103,760.6925685405731
1104,761.4775598049164
1105,762.2085516452789
1106,762.9565434455872
1107,763.6985352039337
1108,764.457526922226
1109,765.1755187511444
1110,765.919510602951
1111,766.6725022792816
1112,767.4574935436249
1113,768.1984853744507
1114,768.9394772052765
1115,769.7164685726166
1116,770.509459733963
1117,771.2604513168335
1118,771.9784433841705
1119,772.6934354305267
1120,773.4184274673462
1121,774.1684191226959
1122,774.908411026001
1123,775.6714024543762
1124,776.4493939876556
1125,777.251384973526
1126,777.9973766803741
1127,778.7423684597015
1128,779.4793603420258
1129,780.2183520793915
1130,780.9313442707062
1131,781.6483361721039
1132,782.3713283538818
1133,783.1413197517395
1134,783.8863115310669
1135,784.6083035469055
1136,785.3232955932617
1137,786.0492875576019
1138,786.7312798500061
1139,787.4312722682953
1140,788.1412642002106
1141,788.8522565364838
1142,789.5352487564087
1143,790.232241153717
1144,790.9392333030701
1145,791.6612253189087
1146,792.3582174777985
1147,793.0512099266052
1148,793.7782018184662
1149,794.5491933822632
1150,795.3751840591431
1151,796.1301758289337
1152,796.9461667537689
1153,797.7491579055786
1154,798.5571489334106
1155,799.289140701294
1156,800.0141327381134
1157,800.7381246089935
1158,801.4671165943146
1159,802.1911084651947
1160,802.9231004714966
1161,803.7180917263031
1162,804.6320815086365
1163,805.5050718784332
1164,806.2760632038116
1165,807.052054643631
1166,807.7930464744568
1167,808.5270383358002
1168,809.2380304336548
1169,809.9690222740173
1170,810.713014125824
1171,811.5460047721863
1172,812.3689956665039
1173,813.1549870967865
1174,813.9549782276154
1175,814.7509694099426
1176,815.526960849762
1177,816.2589526176453
1178,816.9969444274902
1179,817.7419362068176
1180,818.4879279136658
1181,819.235919713974
1182,819.9599115848541
1183,820.6819036006927
1184,821.4088954925537
1185,822.1728870868683
1186,822.9838781356812
1187,823.7548694610596
1188,824.5388607978821
1189,825.3278522491455
1190,826.1168434619904
1191,826.8558351993561
1192,827.5998270511627
1193,828.331818819046
1194,829.0778105258942
1195,829.8058025836945
1196,830.5417943000793
1197,831.2997858524323
1198,832.0977771282196
1199,832.8777685165405
1200,833.6657598018646
1201,834.4467511177063
1202,835.2157425880432
1203,835.9337346553802
1204,836.663726568222
1205,837.3967182636261
1206,838.1497099399567
1207,838.8797018527985
1208,839.6406934261322
1209,840.3936851024628
1210,841.1776764392853
1211,841.916668176651
1212,842.656660079956
1213,843.3956518173218
1214,844.1426436901093
1215,844.8586356639862
1216,845.555627822876
1217,846.2576200962067
1218,846.9846119880676
1219,847.7176039218903
1220,848.456595659256
1221,849.2585868835449
1222,850.1045775413513
1223,850.8705689907074
1224,851.6215608119965
1225,852.3605525493622
1226,853.0735445022583
1227,853.7495369911194
1228,854.4165296554565
1229,855.0985221862793
1230,855.8155143260956
1231,856.5475060939789
1232,857.2464983463287
1233,857.9344906806946
1234,858.6354830265045
1235,859.3654749393463
1236,860.0924668312073
1237,860.7784593105316
1238,861.4424519538879
1239,862.1094443798065
1240,862.7974367141724
1241,863.530428647995
1242,864.2894203662872
1243,865.0734117031097
1244,865.7724039554596
1245,866.4593961238861
1246,867.1593885421753
1247,867.8603806495667
1248,868.5893726348877
1249,869.2993648052216
1250,870.0223567485809
1251,870.7783484458923
1252,871.5783395767212
1253,872.354330778122
1254,873.0563230514526
1255,873.7853150367737
1256,874.5143070220947
1257,875.2362990379333
1258,875.9712908267975
1259,876.7082827091217
1260,877.4002749919891
1261,878.0912673473358
1262,878.7832596302032
1263,879.513251543045
1264,880.315242767334
1265,881.1612331867218
1266,881.942224740982
1267,882.7192161083221
1268,883.5002074241638
1269,884.2691988945007
1270,885.0001907348633
1271,885.7001829147339
1272,886.4081752300262
1273,887.127167224884
1274,887.8631589412689
1275,888.5961508750916
1276,889.3071429729462
1277,890.0361349582672
1278,890.7641267776489
1279,891.4991188049316
1280,892.2381105422974
1281,892.9501025676727
1282,893.6890943050385
1283,894.4410860538483
1284,895.2060775756836
1285,895.9370694160461
1286,896.669061422348
1287,897.4080531597137
1288,898.1680448055267
1289,898.9080364704132
1290,899.6110286712646
1291,900.3650205135345
1292,901.1180121898651
1293,901.8720037937164
1294,902.6019957065582
1295,903.3449873924255
1296,904.1049790382385
1297,904.8829703330994
1298,905.6609616279602
1299,906.3569540977478
1300,907.1259455680847
1301,907.8659372329712
1302,908.6219289302826
1303,909.3309209346771
1304,910.073912858963
1305,910.8079047203064
1306,911.5688962936401
1307,912.3238878250122
1308,913.0308799743652
1309,913.7568719387054
1310,914.5038638114929
1311,915.2528553009033
1312,915.9938471317291
1313,916.703839302063
1314,917.4448311328888
1315,918.1758229732513
1316,918.908814907074
1317,919.6088070869446
1318,920.3457989692688
1319,921.1097905635834
1320,921.9477813243866
1321,922.6877729892731
1322,923.4077649116516
1323,924.1737565994263
1324,924.9217481613159
1325,925.641740322113
1326,926.3857319355011
1327,927.1307237148285
1328,927.9077150821686
1329,928.6397070884705
1330,929.348699092865
1331,930.1076908111572
1332,930.8566825389862
1333,931.6686735153198
1334,932.3676657676697
1335,933.2046563625336
1336,934.041647195816
1337,934.8746378421783
1338,935.618629693985
1339,936.3546214103699
1340,937.0776135921478
1341,937.7956056594849
1342,938.4905979633331
1343,939.1985900402069
1344,939.9215819835663
1345,940.6805734634399
1346,941.4165654182434
1347,942.138557434082
1348,942.8795492649078
1349,943.6315407752991
1350,944.3515329360962
1351,945.0675249099731
1352,945.7895169258118
1353,946.5175089836121
1354,947.2285010814667
1355,947.9264931678772
1356,948.6474852561951
1357,949.3784770965576
1358,950.1114690303802
1359,950.8144612312317
1360,951.5294532775879
1361,952.2514452934265
1362,952.9934370517731
1363,953.7164289951324
1364,954.4094214439392
1365,955.117413520813
1366,955.8384056091309
1367,956.5933971405029
1368,957.2963893413544
1369,958.0083816051483
1370,958.7313735485077
1371,959.4573655128479
1372,960.2043571472168
1373,960.8943495750427
1374,961.6353414058685
1375,962.375333070755
1376,963.177324295044
1377,963.921315908432
1378,964.6603078842163
1379,965.4122993946075
1380,966.1812908649445
1381,966.934282541275
1382,967.6112751960754
1383,968.3012673854828
1384,968.9832599163055
1385,969.6942520141602
1386,970.4072442054749
1387,971.1412360668182
1388,971.9082274436951
1389,972.6972186565399
1390,973.4532103538513
1391,974.1912021636963
1392,974.9331939220428
1393,975.6921854019165
1394,976.4271774291992
1395,977.1491694450378
1396,977.864161491394
1397,978.5771534442902
1398,979.2631459236145
1399,979.9331386089325
1400,980.6021311283112
1401,981.2941234111786
1402,982.0341153144836
1403,982.7361073493958
1404,983.464099407196
1405,984.1960911750793
1406,984.9260830879211
1407,985.6180756092072
1408,986.3410675525665
1409,987.0800592899323
1410,987.8260509967804
1411,988.5100433826447
1412,989.1890358924866
1413,989.87002825737
1414,990.5750205516815
1415,991.258013010025
1416,991.9660050868988
1417,992.702996969223
1418,993.4819884300232
1419,994.2449798583984
1420,994.955971956253
1421,995.6579642295837
1422,996.3549563884735
1423,997.0569486618042
1424,997.7339413166046
1425,998.3879339694977
1426,999.0489265918732
1427,999.7319190502167
1428,1000.4659109115601
1429,1001.1979029178619
1430,1001.9008951187134
1431,1002.6128871440887
1432,1003.3218791484833
1433,1004.0328714847565
1434,1004.7108638286591
1435,1005.3828563690186
1436,1006.0578489303589
1437,1006.7318415641785
1438,1007.409833908081
1439,1008.0608267784119
1440,1008.7218194007874
1441,1009.3948118686676
1442,1010.1018040180206
1443,1010.8267960548401
1444,1011.52778840065
1445,1012.2577803134918
1446,1012.9697723388672
1447,1013.7067642211914
1448,1014.4137563705444
1449,1015.0957486629486
1450,1015.7977409362793
1451,1016.5017330646515
1452,1017.2097253799438
1453,1017.8987176418304
1454,1018.5967099666595
1455,1019.3287017345428
1456,1020.028694152832
1457,1020.7156865596771
1458,1021.4136786460876
1459,1022.1156709194183
1460,1022.839663028717
1461,1023.5346553325653
1462,1024.2706470489502
1463,1024.9966390132904
1464,1025.760630607605
1465,1026.4636228084564
1466,1027.203614473343
1467,1027.918606519699
1468,1028.630598783493
1469,1029.2995913028717
1470,1029.9695839881897
1471,1030.6545763015747
1472,1031.391568183899
1473,1032.1535596847534
1474,1032.8785517215729
1475,1033.6365432739258
1476,1034.4065346717834
1477,1035.1715261936188
1478,1035.8755185604095
1479,1036.5755107402802
1480,1037.2755029201508
1481,1037.9824950695038
1482,1038.6814873218536
1483,1039.3504798412323
1484,1040.0144724845886
1485,1040.658465385437
1486,1041.3784575462341
1487,1042.136449098587
1488,1042.9414401054382
1489,1043.7014317512512
1490,1044.4304237365723
1491,1045.1014161109924
1492,1045.7484090328217
1493,1046.3934018611908
1494,1047.049394607544
1495,1047.7313871383667
1496,1048.4363791942596
1497,1049.1103718280792
1498,1049.787364244461
1499,1050.4953563213348
1500,1051.2333481311798
1501,1051.9893398284912
1502,1052.7053318023682
1503,1053.3753244876862
1504,1054.057317018509
1505,1054.7453093528748
1506,1055.4333016872406
1507,1056.1042943000793
1508,1056.7522871494293
1509,1057.3872799873352
1510,1058.027272939682
1511,1058.6762657165527
1512,1059.3142585754395
1513,1059.9752514362335
1514,1060.6702437400818
1515,1061.36123585701
1516,1062.0682282447815
1517,1062.7702202796936
1518,1063.4522128105164
1519,1064.1312053203583
1520,1064.7761981487274
1521,1065.4381906986237
1522,1066.0921835899353
1523,1066.8181755542755
1524,1067.5041677951813
1525,1068.1721603870392
1526,1068.8631527423859
1527,1069.6231443881989
1528,1070.4161355495453
1529,1071.2071268558502
1530,1071.9711184501648
1531,1072.697110414505
1532,1073.4011025428772
1533,1074.0940947532654
1534,1074.7760872840881
1535,1075.4520797729492
1536,1076.1440720558167
1537,1076.8290646076202
1538,1077.535056591034
1539,1078.2410488128662
1540,1078.9750406742096
1541,1079.7060325145721
1542,1080.438024520874
1543,1081.1460165977478
1544,1081.8730087280273
1545,1082.5930006504059
1546,1083.3139927387238
1547,1084.0309846401215
1548,1084.7399768829346
1549,1085.4109694957733
1550,1086.0719621181488
1551,1086.722954750061
1552,1087.4169471263885
1553,1088.1209392547607
1554,1088.831931591034
1555,1089.5419235229492
1556,1090.2339160442352
1557,1090.9269082546234
1558,1091.6369004249573
1559,1092.3518924713135
1560,1093.0668845176697
1561,1093.747876882553
1562,1094.4298694133759
1563,1095.1098618507385
1564,1095.8118541240692
1565,1096.539845943451
1566,1097.2808377742767
1567,1097.9708302021027
1568,1098.6418228149414
1569,1099.3008153438568
1570,1099.980808019638
1571,1100.6977999210358
1572,1101.4687914848328
1573,1102.2557826042175
1574,1103.064773797989
1575,1103.86976480484
1576,1104.6757559776306
1577,1105.4737470149994
1578,1106.243738412857
1579,1106.9827303886414
1580,1107.70272231102
1581,1108.4217143058777
1582,1109.1437063217163
1583,1109.8786981105804
1584,1110.633689880371
1585,1111.4186811447144
1586,1112.2236721515656
1587,1113.0356631278992
1588,1113.8346543312073
1589,1114.6146457195282
1590,1115.366637468338
1591,1116.1146290302277
1592,1116.8616209030151
1593,1117.6226124763489
1594,1118.3516042232513
1595,1119.1145958900452
1596,1119.8735873699188
1597,1120.6885783672333
1598,1121.5075693130493
1599,1122.2945606708527
1600,1123.0825519561768
1601,1123.845543384552
1602,1124.592535018921
1603,1125.3035271167755
1604,1126.0295190811157
1605,1126.7525112628937
1606,1127.493502855301
1607,1128.2214949131012
1608,1128.942487001419
1609,1129.6604788303375
1610,1130.3994708061218
1611,1131.156462430954
1612,1131.8904542922974
1613,1132.638445854187
1614,1133.3904376029968
1615,1134.1514291763306
1616,1134.8694212436676
1617,1135.5794134140015
1618,1136.3034052848816
1619,1137.0423970222473
1620,1137.7833888530731
1621,1138.515380859375
1622,1139.281372308731
1623,1140.0603637695312
1624,1140.7853555679321
1625,1141.5393471717834
1626,1142.2813391685486
1627,1142.9943311214447
1628,1143.678323507309
1629,1144.3503160476685
1630,1145.00230884552
1631,1145.7303009033203
1632,1146.4732925891876
1633,1147.2122843265533
1634,1147.936276435852
1635,1148.6382687091827
1636,1149.3132610321045
1637,1149.9712538719177
1638,1150.6122467517853
1639,1151.2562396526337
1640,1151.9052324295044
1641,1152.5562250614166
1642,1153.1992180347443
1643,1153.839210987091
1644,1154.4882037639618
1645,1155.1561963558197
1646,1155.8351888656616
1647,1156.510181427002
1648,1157.1761739253998
1649,1157.8381667137146
1650,1158.5131590366364
1651,1159.1821517944336
1652,1159.8391444683075
1653,1160.4811372756958
1654,1161.1381299495697
1655,1161.8011226654053
1656,1162.4791152477264
1657,1163.1551077365875
1658,1163.8231003284454
1659,1164.5080926418304
1660,1165.1860852241516
1661,1165.8640775680542
1662,1166.5330703258514
1663,1167.1810631752014
1664,1167.8320558071136
1665,1168.4930484294891
1666,1169.1730411052704
1667,1169.8670332431793
1668,1170.5720255374908
1669,1171.3020174503326
1670,1172.0390093326569
1671,1172.816000699997
1672,1173.579992055893
1673,1174.308984041214
1674,1175.0299761295319
1675,1175.7319684028625
1676,1176.4339604377747
1677,1177.1249527931213
1678,1177.809945344925
1679,1178.5189373493195
1680,1179.2569291591644
1681,1180.0239207744598
1682,1180.7889122962952
1683,1181.5099041461945
1684,1182.2518961429596
1685,1182.985888004303
1686,1183.7348794937134
1687,1184.4338717460632
1688,1185.1518638134003
1689,1185.8618559837341
1690,1186.5708482265472
1691,1187.2628405094147
1692,1187.979832649231
1693,1188.7368240356445
1694,1189.5508151054382
1695,1190.342806339264
1696,1191.1147978305817
1697,1191.9047889709473
1698,1192.7027802467346
1699,1193.4437720775604
1700,1194.180763721466
1701,1194.9327554702759
1702,1195.7067468166351
1703,1196.4737384319305
1704,1197.2147302627563
1705,1197.9727218151093
1706,1198.7377133369446
1707,1199.4757051467896
1708,1200.2136969566345
1709,1200.9656887054443
1710,1201.7216801643372
1711,1202.4376723766327
1712,1203.1446645259857
1713,1203.8506565093994
1714,1204.5706486701965
1715,1205.312640428543
1716,1206.0576322078705
1717,1206.847623348236
1718,1207.6796140670776
1719,1208.4396057128906
1720,1209.2135972976685
1721,1209.9795887470245
1722,1210.7475802898407
1723,1211.4605722427368
1724,1212.1795642375946
1725,1212.8955564498901
1726,1213.6175484657288
1727,1214.3155405521393
1728,1215.0415325164795
1729,1215.7785243988037
1730,1216.5495159626007
1731,1217.2855076789856
1732,1218.0224995613098
1733,1218.7624912261963
1734,1219.5114829540253
1735,1220.2314751148224
1736,1220.9724669456482
1737,1221.7384583950043
1738,1222.5274496078491
1739,1223.2864410877228
1740,1224.0464327335358
1741,1224.8294241428375
1742,1225.6034154891968
1743,1226.3364074230194
1744,1227.0733993053436
1745,1227.807391166687
1746,1228.5643827915192
1747,1229.3283741474152
1748,1230.0983657836914
1749,1230.897356748581
1750,1231.747347354889
1751,1232.5283386707306
1752,1233.284330368042
1753,1234.053321838379
1754,1234.8223133087158
1755,1235.5763049125671
1756,1236.3072969913483
1757,1237.066288471222
1758,1237.8422799110413
1759,1238.6112713813782
1760,1239.3402633666992
1761,1240.1082546710968
1762,1240.8822462558746
1763,1241.6522376537323
1764,1242.391229391098
1765,1243.1472210884094
1766,1243.9012126922607
1767,1244.6682043075562
1768,1245.4111959934235
1769,1246.173187494278
1770,1246.9471788406372
1771,1247.7431700229645
1772,1248.490161895752
1773,1249.2571532726288
1774,1250.0211448669434
1775,1250.7831363677979
1776,1251.509128332138
1777,1252.2621200084686
1778,1253.0311114788055
1779,1253.8451025485992
1780,1254.601094007492
1781,1255.3650856018066
1782,1256.1340770721436
1783,1256.92706823349
1784,1257.68106007576
1785,1258.414051771164
1786,1259.1480436325073
1787,1259.8970353603363
1788,1260.641027212143
1789,1261.3750190734863
1790,1262.13401055336
1791,1262.8910021781921
1792,1263.673993587494
1793,1264.4079854488373
1794,1265.1699769496918
1795,1265.9319684505463
1796,1266.6809601783752
1797,1267.39395236969
1798,1268.1199443340302
1799,1268.835936307907
1800,1269.5689282417297
1801,1270.283920288086
1802,1271.023912191391
1803,1271.7749037742615
1804,1272.5468952655792
1805,1273.2738871574402
1806,1274.0088789463043
1807,1274.7368710041046
1808,1275.4528629779816
1809,1276.146855354309
1810,1276.8298478126526
1811,1277.52184009552
1812,1278.189832687378
1813,1278.8418254852295
1814,1279.4858183860779
1815,1280.1428110599518
1816,1280.793803691864
1817,1281.4297966957092
1818,1282.0727896690369
1819,1282.717782497406
1820,1283.345775604248
1821,1283.9657685756683
1822,1284.5957615375519
1823,1285.2247545719147
1824,1285.840747833252
1825,1286.4547410011292
1826,1287.0787341594696
1827,1287.6927273273468
1828,1288.3137204647064
1829,1288.9317135810852
1830,1289.5527067184448
1831,1290.175699710846
1832,1290.803692817688
1833,1291.4806852340698
1834,1292.1876776218414
1835,1292.9106695652008
1836,1293.605661869049
1837,1294.2856543064117
1838,1294.9656467437744
1839,1295.643639087677
1840,1296.3006319999695
1841,1296.9436247348785
1842,1297.6016175746918
1843,1298.2706100940704
1844,1298.9436025619507
1845,1299.6105952262878
1846,1300.275587797165
1847,1300.953580379486
1848,1301.6545724868774
1849,1302.365564584732
1850,1303.0345573425293
1851,1303.7245495319366
1852,1304.4185419082642
1853,1305.1425340175629
1854,1305.8515260219574
1855,1306.5305185317993
1856,1307.2555105686188
1857,1307.9855024814606
1858,1308.6954946517944
1859,1309.345487356186
1860,1310.0024800300598
1861,1310.6414730548859
1862,1311.3094656467438
1863,1311.97145819664
1864,1312.6694505214691
1865,1313.3754427433014
1866,1314.0624351501465
1867,1314.7414274215698
1868,1315.419420003891
1869,1316.0994124412537
1870,1316.7604050636292
1871,1317.4353976249695
1872,1318.1043901443481
1873,1318.772382736206
1874,1319.422375679016
1875,1320.088368177414
1876,1320.7513608932495
1877,1321.417353630066
1878,1322.0793461799622
1879,1322.7403388023376
1880,1323.4183313846588
1881,1324.0933239459991
1882,1324.7603163719177
1883,1325.4413089752197
1884,1326.1223013401031
1885,1326.7992939949036
1886,1327.4572865962982
1887,1328.1152791976929
1888,1328.7752718925476
1889,1329.4432644844055
1890,1330.0902574062347
1891,1330.7472500801086
1892,1331.4072427749634
1893,1332.0732355117798
1894,1332.715228319168
1895,1333.361221075058
1896,1334.0012140274048
1897,1334.665206670761
1898,1335.3391993045807
1899,1336.0101916790009
1900,1336.6891841888428
1901,1337.3721766471863
1902,1338.0361692905426
1903,1338.697161912918
1904,1339.3641545772552
1905,1340.0541470050812
1906,1340.7291395664215
1907,1341.3941321372986
1908,1342.0601246356964
1909,1342.7471170425415
1910,1343.4111096858978
1911,1344.0821022987366
1912,1344.76309466362
1913,1345.4780869483948
1914,1346.1670792102814
1915,1346.872071504593
1916,1347.568063735962
1917,1348.2510561943054
1918,1348.912048816681
1919,1349.5820412635803
1920,1350.2440340518951
1921,1350.9200265407562
1922,1351.5840191841125
1923,1352.2630116939545
1924,1352.9530038833618
1925,1353.6539962291718
1926,1354.331988811493
1927,1355.0199811458588
1928,1355.7029736042023
1929,1356.4039657115936
1930,1357.0719583034515
1931,1357.7419509887695
1932,1358.4099435806274
1933,1359.0809359550476
1934,1359.7409286499023
1935,1360.4019215106964
1936,1361.090913772583
1937,1361.8079059123993
1938,1362.5338978767395
1939,1363.2108902931213
1940,1363.8828828334808
1941,1364.5378756523132
1942,1365.1988682746887
1943,1365.851861000061
1944,1366.4958539009094
1945,1367.1418466567993
1946,1367.7918395996094
1947,1368.4648320674896
1948,1369.1218247413635
1949,1369.7908172607422
1950,1370.4558100700378
1951,1371.148802280426
1952,1371.8317947387695
1953,1372.497787475586
1954,1373.160779953003
1955,1373.838772535324
1956,1374.5097651481628
1957,1375.160757780075
1958,1375.8317503929138
1959,1376.5207426548004
1960,1377.2127351760864
1961,1377.8867275714874
1962,1378.5747199058533
1963,1379.2717123031616
1964,1379.9827044010162
1965,1380.6766967773438
1966,1381.3626890182495
1967,1382.058681488037
1968,1382.766673564911
1969,1383.4486660957336
1970,1384.140658378601
1971,1384.825650691986
1972,1385.5456428527832
1973,1386.2326350212097
1974,1386.9246275424957
1975,1387.6136198043823
1976,1388.324611902237
1977,1388.9986045360565
1978,1389.6755969524384
1979,1390.3675892353058
1980,1391.0975811481476
1981,1391.8085732460022
1982,1392.5135655403137
1983,1393.236557483673
1984,1393.957549571991
1985,1394.6485419273376
1986,1395.3485341072083
1987,1396.0745260715485
1988,1396.8095178604126
1989,1397.4835104942322
1990,1398.1685028076172
1991,1398.8574953079224
1992,1399.5504875183105
1993,1400.2244801521301
1994,1400.9154722690582
1995,1401.6264646053314
1996,1402.3694562911987
1997,1403.075448513031
1998,1403.7534408569336
1999,1404.4314334392548
2000,1405.1014258861542
2001,1405.741418838501
2002,1406.3904116153717
2003,1407.0514044761658
2004,1407.7543966770172
2005,1408.453388929367
2006,1409.1793808937073
2007,1409.9223725795746
2008,1410.6663641929626
2009,1411.3713564872742
2010,1412.0713486671448
2011,1412.7653410434723
2012,1413.4313335418701
2013,1414.101326227188
2014,1414.771318912506
2015,1415.4443113803864
2016,1416.091304063797
2017,1416.7692966461182
2018,1417.4502890110016
2019,1418.1992807388306
2020,1418.885273218155
2021,1419.589265346527
2022,1420.2802577018738
2023,1420.9792499542236
2024,1421.6552424430847
2025,1422.3582346439362
2026,1423.0542271137238
2027,1423.7572193145752
2028,1424.4502115249634
2029,1425.1512038707733
2030,1425.8611958026886
2031,1426.5671880245209
2032,1427.2501804828644
2033,1427.9511728286743
2034,1428.6491649150848
2035,1429.3651571273804
2036,1430.0441496372223
2037,1430.755141735077
2038,1431.4461340904236
2039,1432.1661260128021
2040,1432.8401186466217
2041,1433.5341107845306
2042,1434.231103181839
2043,1434.9510951042175
2044,1435.6390874385834
2045,1436.3460795879364
2046,1437.0490717887878
2047,1437.7850637435913
2048,1438.518055677414
2049,1439.2190477848053
2050,1439.927039861679
2051,1440.637032032013
2052,1441.3520240783691
2053,1442.0390164852142
2054,1442.7260088920593
2055,1443.406001329422
2056,1444.1209933757782
2057,1444.8389854431152
2058,1445.5349779129028
2059,1446.2429699897766
2060,1446.9449622631073
2061,1447.6379544734955
2062,1448.3059470653534
2063,1448.968939781189
2064,1449.6189324855804
2065,1450.2579255104065
2066,1450.88791847229
2067,1451.5239114761353
2068,1452.1699042320251
2069,1452.8298969268799
2070,1453.4818897247314
2071,1454.1268825531006
2072,1454.7738754749298
2073,1455.424868106842
2074,1456.066861152649
2075,1456.6968541145325
2076,1457.3278470039368
2077,1457.9608399868011
2078,1458.611832857132
2079,1459.2538256645203
2080,1459.8788187503815
2081,1460.4798121452332
2082,1461.0848054885864
2083,1461.7307982444763
2084,1462.4407904148102
2085,1463.1357827186584
2086,1463.7997753620148
2087,1464.4257683753967
2088,1465.061761379242
2089,1465.706754207611
2090,1466.3297474384308
2091,1466.960740327835
2092,1467.5987331867218
2093,1468.2307262420654
2094,1468.8687191009521
2095,1469.488712310791
2096,1470.1217052936554
2097,1470.7506983280182
2098,1471.3926911354065
2099,1472.0396840572357
2100,1472.683676958084
2101,1473.331669807434
2102,1473.9986622333527
2103,1474.686654806137
2104,1475.3646471500397
2105,1476.0546395778656
2106,1476.737632036209
2107,1477.4296243190765
2108,1478.1026167869568
2109,1478.7826092243195
2110,1479.4636018276215
2111,1480.1485941410065
2112,1480.8435864448547
2113,1481.5135791301727
2114,1482.2025713920593
2115,1482.8925638198853
2116,1483.591556072235
2117,1484.2915482521057
2118,1484.9715406894684
2119,1485.662533044815
2120,1486.3515253067017
2121,1487.04851770401
2122,1487.7505099773407
2123,1488.4195024967194
2124,1489.0974950790405
2125,1489.7724874019623
2126,1490.4824795722961
2127,1491.1774718761444
2128,1491.8544645309448
2129,1492.5104570388794
2130,1493.1694498062134
2131,1493.8374423980713
2132,1494.5294346809387
2133,1495.237426996231
2134,1495.9244194030762
2135,1496.6034116744995
2136,1497.2744042873383
2137,1497.956396818161
2138,1498.6283893585205
2139,1499.2743821144104
2140,1499.9073750972748
2141,1500.5283682346344
2142,1501.1613612174988
2143,1501.8073542118073
2144,1502.4853465557098
2145,1503.1653389930725
2146,1503.8293316364288
2147,1504.5043241977692
2148,1505.186316728592
2149,1505.8703091144562
2150,1506.5243017673492
2151,1507.186294555664
2152,1507.8392872810364
2153,1508.4902801513672
2154,1509.134272813797
2155,1509.7762658596039
2156,1510.427258491516
2157,1511.08625125885
2158,1511.7582437992096
2159,1512.43323636055
2160,1513.1122288703918
2161,1513.8002212047577
2162,1514.5142133235931
2163,1515.2272052764893
2164,1515.9021978378296
2165,1516.585190296173
2166,1517.2581827640533
2167,1517.9391753673553
2168,1518.6021678447723
2169,1519.2591607570648
2170,1519.9171533584595
2171,1520.5941457748413
2172,1521.2781383991241
2173,1521.96413064003
2174,1522.6611230373383
2175,1523.3621151447296
2176,1524.0881071090698
2177,1524.8100991249084
2178,1525.5270912647247
2179,1526.2410833835602
2180,1526.9560754299164
2181,1527.6400678157806
2182,1528.2970604896545
2183,1528.938053369522
2184,1529.5880460739136
2185,1530.271038532257
2186,1530.983030796051
2187,1531.6980228424072
2188,1532.3790152072906
2189,1533.0570077896118
2190,1533.7160003185272
2191,1534.3849930763245
2192,1535.0539855957031
2193,1535.704978466034
2194,1536.3839709758759
2195,1537.1039628982544
2196,1537.8999540805817
2197,1538.782944202423
2198,1539.5919353961945
2199,1540.4029262065887
2200,1541.1919176578522
2201,1541.967908859253
2202,1542.6889009475708
2203,1543.4128930568695
2204,1544.130884885788
2205,1544.8368771076202
2206,1545.5348694324493
2207,1546.2298617362976
2208,1546.9248540401459
2209,1547.631846189499
2210,1548.357838153839
2211,1549.0608303546906
2212,1549.7758224010468
2213,1550.481814622879
2214,1551.191806793213
2215,1551.8827991485596
2216,1552.572791337967
2217,1553.2627837657928
2218,1553.9657759666443
2219,1554.6797680854797
2220,1555.3697605133057
2221,1556.0737526416779
2222,1556.7897446155548
2223,1557.5447363853455
2224,1558.273728132248
2225,1559.03071975708
2226,1559.78271150589
2227,1560.5207033157349
2228,1561.2366952896118
2229,1561.9416875839233
2230,1562.6466798782349
2231,1563.379671573639
2232,1564.0916638374329
2233,1564.8286554813385
2234,1565.5686473846436
2235,1566.3266389369965
2236,1567.040631055832
2237,1567.7536232471466
2238,1568.4596152305603
2239,1569.163607597351
2240,1569.8506000041962
2241,1570.55859208107
2242,1571.2715842723846
2243,1571.9785764217377
2244,1572.6765685081482
2245,1573.4025604724884
2246,1574.1165525913239
2247,1574.8375446796417
2248,1575.53253698349
2249,1576.230529308319
2250,1576.9175214767456
2251,1577.6165137290955
2252,1578.2875063419342
2253,1578.9544990062714
2254,1579.6264915466309
2255,1580.3184838294983
2256,1581.0274760723114
2257,1581.7014684677124
2258,1582.3894610404968
2259,1583.0754532814026
2260,1583.7844455242157
2261,1584.4914376735687
2262,1585.186429977417
2263,1585.89342212677
2264,1586.629413843155
2265,1587.3594057559967
2266,1588.0493981838226
2267,1588.752390384674
2268,1589.4563825130463
2269,1590.189374446869
2270,1590.887366771698
2271,1591.6243586540222
2272,1592.3503506183624
2273,1593.079342365265
2274,1593.7623348236084
2275,1594.4623272418976
2276,1595.1423196792603
2277,1595.8383119106293
2278,1596.5283043384552
2279,1597.2132966518402
2280,1597.9182887077332
2281,1598.648280620575
2282,1599.4182722568512
2283,1600.1272642612457
2284,1600.855256319046
2285,1601.5682482719421
2286,1602.2712404727936
2287,1602.9602329730988
2288,1603.6562252044678
2289,1604.3672173023224
2290,1605.0702095031738
2291,1605.8062014579773
2292,1606.5311932563782
2293,1607.2971849441528
2294,1608.0061769485474
2295,1608.7251689434052
2296,1609.4301612377167
2297,1610.147153377533
2298,1610.8271458148956
2299,1611.522138118744
2300,1612.218130350113
2301,1612.9321224689484
2302,1613.6311147212982
2303,1614.3321068286896
2304,1615.0310990810394
2305,1615.7660911083221
2306,1616.4760830402374
2307,1617.1900751590729
2308,1617.9040672779083
2309,1618.6030595302582
2310,1619.2840518951416
2311,1619.9650444984436
2312,1620.6550369262695
2313,1621.3310294151306
2314,1621.9970219135284
2315,1622.6880142688751
2316,1623.4050064086914
2317,1624.1199984550476
2318,1624.842990398407
2319,1625.5569825172424
2320,1626.2709746360779
2321,1626.9439671039581
2322,1627.642959356308
2323,1628.3249518871307
2324,1628.9819445610046
2325,1629.6229374408722
2326,1630.2489304542542
2327,1630.8839235305786
2328,1631.5349161624908
2329,1632.2199087142944
2330,1632.8829011917114
2331,1633.5308940410614
2332,1634.160887002945
2333,1634.7938799858093
2334,1635.4118733406067
2335,1636.0188665390015
2336,1636.6198599338531
2337,1637.2218532562256
2338,1637.821846485138
2339,1638.4238398075104
2340,1639.0188331604004
2341,1639.6168265342712
2342,1640.2238199710846
2343,1640.8328132629395
2344,1641.4568061828613
2345,1642.0727994441986
2346,1642.6977925300598
2347,1643.3247854709625
2348,1643.9667785167694
2349,1644.6107711791992
2350,1645.2597641944885
2351,1645.8697574138641
2352,1646.4827506542206
2353,1647.0917437076569
2354,1647.7017369270325
2355,1648.2997303009033
2356,1648.9127235412598
2357,1649.550716638565
2358,1650.1947093009949
2359,1650.8587019443512
2360,1651.52969455719
2361,1652.2196869850159
2362,1652.8896794319153
2363,1653.5396723747253
2364,1654.2006649971008
2365,1654.867657661438
2366,1655.5366501808167
2367,1656.2436423301697
2368,1656.955634355545
2369,1657.706626176834
2370,1658.3586189746857
2371,1659.0416114330292
2372,1659.729603767395
2373,1660.41459608078
2374,1661.1055884361267
2375,1661.791580915451
2376,1662.4605734348297
2377,1663.1275660991669
2378,1663.7935585975647
2379,1664.4435515403748
2380,1665.0875444412231
2381,1665.7325372695923
2382,1666.3785300254822
2383,1667.0255229473114
2384,1667.6805155277252
2385,1668.3455080986023
2386,1669.0235006809235
2387,1669.7054932117462
2388,1670.404485464096
2389,1671.0864777565002
2390,1671.7734701633453
2391,1672.444462776184
2392,1673.1054553985596
2393,1673.7424483299255
2394,1674.3734414577484
2395,1675.0084342956543
2396,1675.6454272270203
2397,1676.3014199733734
2398,1676.9514129161835
2399,1677.6144053936005
2400,1678.2873980998993
2401,1678.93639087677
2402,1679.601383447647
2403,1680.271376132965
2404,1680.9423685073853
2405,1681.5953614711761
2406,1682.25035405159
2407,1682.8923468589783
2408,1683.5403397083282
2409,1684.1973326206207
2410,1684.8753249645233
2411,1685.56831741333
2412,1686.2383098602295
2413,1686.9273023605347
2414,1687.6152946949005
2415,1688.3152868747711
2416,1689.0132791996002
2417,1689.7222712039948
2418,1690.4542632102966
2419,1691.2482542991638
2420,1691.994246006012
2421,1692.7212381362915
2422,1693.4622297286987
2423,1694.1952216625214
2424,1694.9052138328552
2425,1695.593206167221
2426,1696.2961983680725
2427,1696.9931907653809
2428,1697.7121827602386
2429,1698.4411747455597
2430,1699.1401669979095
2431,1699.8331592082977
2432,1700.5071518421173
2433,1701.1641445159912
2434,1701.8221371173859
2435,1702.4881298542023
2436,1703.1701221466064
2437,1703.8601145744324
2438,1704.5721065998077
2439,1705.2510991096497
2440,1705.9560914039612
2441,1706.6630835533142
2442,1707.3640756607056
2443,1708.041068315506
2444,1708.706060886383
2445,1709.3590536117554
2446,1710.0090463161469
2447,1710.656039237976
2448,1711.2970321178436
2449,1711.930025100708
2450,1712.55601811409
2451,1713.1990110874176
2452,1713.830003976822
2453,1714.474996805191
2454,1715.133989572525
2455,1715.8369817733765
2456,1716.5749735832214
2457,1717.2929656505585
2458,1718.0129578113556
2459,1718.7129499912262
2460,1719.3929424285889
2461,1720.0429351329803
2462,1720.6989278793335
2463,1721.403920173645
2464,1722.13991189003
2465,1722.8239042758942
2466,1723.4758970737457
2467,1724.1048901081085
2468,1724.7618827819824
2469,1725.4798748493195
2470,1726.1998670101166
2471,1726.9078590869904
2472,1727.6008515357971
2473,1728.277843952179
2474,1728.925836801529
2475,1729.568829536438
2476,1730.2018225193024
2477,1730.8548154830933
2478,1731.5078082084656
2479,1732.177800655365
2480,1732.867793083191
2481,1733.5687851905823
2482,1734.2777774333954
2483,1734.9617698192596
2484,1735.6227624416351
2485,1736.2747552394867
2486,1736.9177482128143
2487,1737.5607409477234
2488,1738.1877341270447
2489,1738.8157272338867
2490,1739.4317202568054
2491,1740.0447134971619
2492,1740.6777064800262
2493,1741.3276991844177
2494,1741.9906919002533
2495,1742.6676843166351
2496,1743.377676486969
2497,1744.0906686782837
2498,1744.8006608486176
2499,1745.5066530704498
2500,1746.1966452598572
2501,1746.8626379966736
2502,1747.5036308765411
2503,1748.132623910904
2504,1748.7526168823242
2505,1749.3596103191376
2506,1749.9556035995483
2507,1750.5615968704224
2508,1751.1895899772644
2509,1751.8435826301575
2510,1752.5075752735138
2511,1753.2035677433014
2512,1753.9075598716736
2513,1754.601552248001
2514,1755.249545097351
2515,1755.8785378932953
2516,1756.492531299591
2517,1757.098524570465
2518,1757.6955177783966
2519,1758.2865114212036
2520,1758.8855047225952
2521,1759.501497745514
2522,1760.14049077034
2523,1760.8014833927155
2524,1761.464476108551
2525,1762.1264686584473
2526,1762.7644617557526
2527,1763.3854548931122
2528,1763.9954481124878
2529,1764.5994412899017
2530,1765.2054345607758
2531,1765.8174278736115
2532,1766.4434208869934
2533,1767.0764138698578
2534,1767.7264065742493
2535,1768.386399269104
2536,1769.0513920783997
2537,1769.715384721756
2538,1770.3843772411346
2539,1771.0523698329926
2540,1771.7163624763489
2541,1772.3603553771973
2542,1773.0103480815887
2543,1773.663340806961
2544,1774.3403334617615
2545,1775.0363256931305
2546,1775.7323179244995
2547,1776.4493100643158
2548,1777.1613020896912
2549,1777.891294002533
2550,1778.6212859153748
2551,1779.3112783432007
2552,1779.9982707500458
2553,1780.691262960434
2554,1781.3752553462982
2555,1782.0602478981018
2556,1782.747240304947
2557,1783.4962317943573
2558,1784.3292226791382
2559,1785.1702132225037
2560,1785.9312047958374
2561,1786.7211961746216
2562,1787.4621880054474
2563,1788.1861798763275
2564,1788.871172428131
2565,1789.5571646690369
2566,1790.255156993866
2567,1790.9891488552094
2568,1791.7211406230927
2569,1792.497132062912
2570,1793.2811233997345
2571,1794.0071153640747
2572,1794.7591071128845
2573,1795.4850990772247
2574,1796.1790912151337
2575,1796.876083612442
2576,1797.5690758228302
2577,1798.2520682811737
2578,1798.9170610904694
2579,1799.5830535888672
2580,1800.271045923233
2581,1800.9490385055542
2582,1801.6280310153961
2583,1802.3170232772827
2584,1803.0110156536102
2585,1803.6930079460144
2586,1804.3710005283356
2587,1805.0359930992126
2588,1805.7179856300354
2589,1806.3779783248901
2590,1807.056970834732
2591,1807.7279632091522
2592,1808.4079558849335
2593,1809.0609486103058
2594,1809.716941356659
2595,1810.3659341335297
2596,1811.027926683426
2597,1811.68691945076
2598,1812.3499121665955
2599,1813.0009047985077
2600,1813.6628975868225
2601,1814.306890487671
2602,1814.9538831710815
2603,1815.6098759174347
2604,1816.2778685092926
2605,1816.9588611125946
2606,1817.630853652954
2607,1818.3278458118439
2608,1819.031837940216
2609,1819.7058305740356
2610,1820.4078228473663
2611,1821.096815109253
2612,1821.7878074645996
2613,1822.46280002594
2614,1823.1307926177979
2615,1823.7677855491638
2616,1824.4137783050537
2617,1825.0447714328766
2618,1825.6897642612457
2619,1826.3617568016052
2620,1827.0657489299774
2621,1827.8017408847809
2622,1828.519732952118
2623,1829.2287249565125
2624,1829.9377171993256
2625,1830.6557092666626
2626,1831.3337016105652
2627,1831.9976942539215
2628,1832.6536870002747
2629,1833.3236796855927
2630,1833.9846723079681
2631,1834.6426649093628
2632,1835.3136575222015
2633,1835.9756503105164
2634,1836.6216430664062
2635,1837.2746357917786
2636,1837.9526283740997
2637,1838.6266207695007
2638,1839.3136131763458
2639,1840.0076055526733
2640,1840.6915979385376
2641,1841.3495905399323
2642,1842.0025835037231
2643,1842.6555762290955
2644,1843.305568933487
2645,1843.950561761856
2646,1844.5955545902252
2647,1845.2395474910736
2648,1845.8765404224396
2649,1846.5345332622528
2650,1847.2195255756378
2651,1847.8905181884766
2652,1848.5665106773376
2653,1849.241503238678
2654,1849.909495830536
2655,1850.5584886074066
2656,1851.2124812602997
2657,1851.8694739341736
2658,1852.5324666500092
2659,1853.1864595413208
2660,1853.8554520606995
2661,1854.5294444561005
2662,1855.2204368114471
2663,1855.9174292087555
2664,1856.5744218826294
2665,1857.2414145469666
2666,1857.9174070358276
2667,1858.5883996486664
2668,1859.2433922290802
2669,1859.9043850898743
2670,1860.5663776397705
2671,1861.2303702831268
2672,1861.8763630390167
2673,1862.5303559303284
2674,1863.1913485527039
2675,1863.8683409690857
2676,1864.5243337154388
2677,1865.1763265132904
2678,1865.839319229126
2679,1866.5103118419647
2680,1867.1803042888641
2681,1867.8332970142365
2682,1868.5032896995544
2683,1869.1822822093964
2684,1869.8642745018005
2685,1870.5142674446106
2686,1871.1722600460052
2687,1871.8302528858185
2688,1872.4942455291748
2689,1873.139238357544
2690,1873.7962310314178
2691,1874.4512238502502
2692,1875.1332161426544
2693,1875.8122086524963
2694,1876.4902012348175
2695,1877.1761934757233
2696,1877.8721859455109
2697,1878.5321786403656
2698,1879.2151708602905
2699,1879.8991634845734
2700,1880.6011555194855
2701,1881.273148059845
2702,1881.9731404781342
2703,1882.6631326675415
2704,1883.3921246528625
2705,1884.089117050171
2706,1884.7811093330383
2707,1885.4751014709473
2708,1886.1850936412811
2709,1886.8610861301422
2710,1887.534078836441
2711,1888.208071231842
2712,1888.8900637626648
2713,1889.5620563030243
2714,1890.2410488128662
2715,1890.932041168213
2716,1891.6620330810547
2717,1892.3800251483917
2718,1893.090017080307
2719,1893.7860095500946
2720,1894.4610018730164
2721,1895.1029949188232
2722,1895.7379877567291
2723,1896.3729808330536
2724,1897.011973619461
2725,1897.6419668197632
2726,1898.2929594516754
2727,1898.9719519615173
2728,1899.6889441013336
2729,1900.3869361877441
2730,1901.109928369522
2731,1901.8249204158783
2732,1902.521912574768
2733,1903.222904920578
2734,1903.9178972244263
2735,1904.6118893623352
2736,1905.2858819961548
2737,1905.9518744945526
2738,1906.6168673038483
2739,1907.2998597621918
2740,1907.9688522815704
2741,1908.6398448944092
2742,1909.3218371868134
2743,1910.0258295536041
2744,1910.7128217220306
2745,1911.376814365387
2746,1912.0288071632385
2747,1912.6708002090454
2748,1913.322793006897
2749,1913.987785577774
2750,1914.6457781791687
2751,1915.2877712249756
2752,1915.9397640228271
2753,1916.5987565517426
2754,1917.2657492160797
2755,1917.9457416534424
2756,1918.6517338752747
2757,1919.3727259635925
2758,1920.0547182559967
2759,1920.7547104358673
2760,1921.4357030391693
2761,1922.1096954345703
2762,1922.752688407898
2763,1923.3956813812256
2764,1924.0366742610931
2765,1924.6796669960022
2766,1925.3276598453522
2767,1925.9856524467468
2768,1926.674644947052
2769,1927.364637374878
2770,1928.0586295127869
2771,1928.7696216106415
2772,1929.4846136569977
2773,1930.1526064872742
2774,1930.8345987796783
2775,1931.5105912685394
2776,1932.1765840053558
2777,1932.827576637268
2778,1933.495569229126
2779,1934.1755616664886
2780,1934.8715541362762
2781,1935.5605463981628
2782,1936.2545387744904
2783,1936.9515309333801
2784,1937.6755230426788
2785,1938.3845150470734
2786,1939.0525076389313
2787,1939.7604999542236
2788,1940.4494922161102
2789,1941.1344847679138
2790,1941.8034772872925
2791,1942.5074694156647
2792,1943.1974618434906
2793,1943.8814542293549
2794,1944.5834465026855
2795,1945.2774386405945
2796,1945.9864308834076
2797,1946.6684234142303
2798,1947.3774154186249
2799,1948.0744078159332
2800,1948.7674000263214
2801,1949.4343926906586
2802,1950.126384973526
2803,1950.8183772563934
2804,1951.5253694057465
2805,1952.2093617916107
2806,1952.915354013443
2807,1953.6383459568024
2808,1954.3763377666473
2809,1955.0953299999237
2810,1955.805321931839
2811,1956.5183141231537
2812,1957.2503061294556
2813,1957.9282984733582
2814,1958.6432905197144
2815,1959.3502826690674
2816,1960.066274881363
2817,1960.7802670001984
2818,1961.50825881958
2819,1962.2542505264282
2820,1962.9332430362701
2821,1963.6512351036072
2822,1964.3712270259857
2823,1965.1112189292908
2824,1965.8252110481262
2825,1966.5182032585144
2826,1967.220195531845
2827,1967.8811881542206
2828,1968.586180448532
2829,1969.2821726799011
2830,1970.0071647167206
2831,1970.705156803131
2832,1971.4401488304138
2833,1972.1701407432556
2834,1972.8841326236725
2835,1973.552125453949
2836,1974.2511177062988
2837,1974.9431099891663
2838,1975.6391022205353
2839,1976.3380944728851
2840,1977.0010871887207
2841,1977.6890795230865
2842,1978.3680720329285
2843,1979.060064315796
2844,1979.7410566806793
2845,1980.4690487384796
2846,1981.172040939331
2847,1981.8450334072113
2848,1982.5420258045197
2849,1983.2490179538727
2850,1983.9950096607208
2851,1984.6520023345947
2852,1985.3589944839478
2853,1986.044986963272
2854,1986.760978937149
2855,1987.4719710350037
2856,1988.1569633483887
2857,1988.8619556427002
2858,1989.5569479465485
2859,1990.2479403018951
2860,1990.994931936264
2861,1991.726923942566
2862,1992.4749155044556
2863,1993.1729078292847
2864,1993.9218995571136
2865,1994.6548914909363
2866,1995.384883403778
2867,1996.0768756866455
2868,1996.7958676815033
2869,1997.5098598003387
2870,1998.2168519496918
2871,1998.891844511032
2872,1999.5868368148804
2873,2000.2638292312622
2874,2000.9308218955994
2875,2001.63281416893
2876,2002.4888045787811
2877,2003.3627948760986
2878,2004.1857857704163
2879,2004.957777261734
2880,2005.6817691326141
2881,2006.402761220932
2882,2007.0977535247803
2883,2007.7937457561493
2884,2008.4767382144928
2885,2009.1577305793762
2886,2009.848722934723
2887,2010.5387153625488
2888,2011.247707605362
2889,2011.9846992492676
2890,2012.751690864563
2891,2013.5076825618744
2892,2014.2346744537354
2893,2014.9666662216187
2894,2015.6776583194733
2895,2016.3896505832672
2896,2017.0796427726746
2897,2017.773635149002
2898,2018.472627401352
2899,2019.1866195201874
2900,2019.8956117630005
2901,2020.56760430336
2902,2021.272596359253
2903,2021.968588590622
2904,2022.710580587387
2905,2023.4495723247528
2906,2024.1575644016266
2907,2024.8875563144684
2908,2025.6125483512878
2909,2026.336540222168
2910,2027.0385324954987
2911,2027.7255249023438
2912,2028.4125173091888
2913,2029.1095094680786
2914,2029.7855019569397
2915,2030.4904942512512
2916,2031.2324860095978
2917,2032.0334770679474
2918,2032.7934687137604
2919,2033.5724601745605
2920,2034.3514513969421
2921,2035.131442785263
2922,2035.9184341430664
2923,2036.6574258804321
2924,2037.4204173088074
2925,2038.1694090366364
2926,2038.9174008369446
2927,2039.6923923492432
2928,2040.4353840351105
2929,2041.188375711441
2930,2041.9613671302795
2931,2042.7483584880829
2932,2043.5023500919342
2933,2044.2753415107727
2934,2045.051332950592
2935,2045.8323242664337
2936,2046.5933158397675
2937,2047.32430768013
2938,2048.0662994384766
2939,2048.8242909908295
2940,2049.5832827091217
2941,2050.2922747135162
2942,2051.0012669563293
2943,2051.715259075165
2944,2052.4432508945465
2945,2053.1622428894043
2946,2053.8592352867126
2947,2054.573227405548
2948,2055.30321931839
2949,2056.0172111988068
2950,2056.72820353508
2951,2057.4391956329346
2952,2058.1531875133514
2953,2058.8651797771454
2954,2059.579171895981
2955,2060.30216383934
2956,2061.062155485153
2957,2061.8271470069885
2958,2062.5541388988495
2959,2063.2921307086945
2960,2064.0381224155426
2961,2064.7791142463684
2962,2065.481106519699
2963,2066.1930985450745
2964,2066.90509057045
2965,2067.617082834244
2966,2068.3080751895905
2967,2069.0160672664642
2968,2069.7300593852997
2969,2070.4490513801575
2970,2071.1550436019897
2971,2071.8610355854034
2972,2072.576027870178
2973,2073.2880198955536
2974,2073.9760122299194
2975,2074.6640045642853
2976,2075.3699967861176
2977,2076.1159884929657
2978,2076.874980211258
2979,2077.5949721336365
2980,2078.337963819504
2981,2079.0679557323456
2982,2079.775948047638
2983,2080.4659402370453
2984,2081.1469328403473
2985,2081.82692527771
2986,2082.502917766571
2987,2083.1919100284576
2988,2083.9029021263123
2989,2084.7038934230804
2990,2085.4688849449158
2991,2086.28187584877
2992,2087.110866546631
2993,2087.88685798645
2994,2088.6748492717743
2995,2089.435840845108
2996,2090.198832511902
2997,2090.9128246307373
2998,2091.642816543579
2999,2092.359808444977
3000,2093.094800233841
3001,2093.8217923641205
3002,2094.549784183502
3003,2095.3037757873535
3004,2096.069767475128
3005,2096.79975938797
3006,2097.5077514648438
3007,2098.2177436351776
3008,2098.926735639572
3009,2099.6377277374268
3010,2100.3367199897766
3011,2101.0697119235992
3012,2101.8047037124634
3013,2102.5326957702637
3014,2103.267687559128
3015,2103.984679698944
3016,2104.702671766281
3017,2105.4046638011932
3018,2106.0746564865112
3019,2106.7416491508484
3020,2107.4036417007446
3021,2108.0796341896057
3022,2108.755626678467
3023,2109.481618642807
3024,2110.224610567093
3025,2111.0006017684937
3026,2111.750593662262
3027,2112.497585296631
3028,2113.2565767765045
3029,2114.0175683498383
3030,2114.769560098648
3031,2115.470552444458
3032,2116.141544818878
3033,2116.8055374622345
3034,2117.4985299110413
3035,2118.2105219364166
3036,2118.9495136737823
3037,2119.673505783081
3038,2120.42049741745
3039,2121.179489135742
3040,2121.935480594635
3041,2122.676472425461
3042,2123.4014644622803
3043,2124.1284563541412
3044,2124.8644483089447
3045,2125.616439819336
3046,2126.3474316596985
3047,2127.10342335701
3048,2127.8814146518707
3049,2128.6764059066772
3050,2129.4303975105286
3051,2130.1933891773224
3052,2130.9623806476593
3053,2131.729372024536
3054,2132.4773638248444
3055,2133.197355747223
3056,2133.91534781456
3057,2134.622339963913
3058,2135.331332206726
3059,2136.0453243255615
3060,2136.729316711426
3061,2137.391309261322
3062,2138.031302213669
3063,2138.690294981003
3064,2139.375287294388
3065,2140.0682797431946
3066,2140.774271965027
3067,2141.47926402092
3068,2142.175256252289
3069,2142.856248855591
3070,2143.532241344452
3071,2144.20023393631
3072,2144.8682265281677
3073,2145.5512189865112
3074,2146.240211248398
3075,2146.9422035217285
3076,2147.634195804596
3077,2148.330188035965
3078,2149.0101804733276
3079,2149.7001729011536
3080,2150.443164587021
3081,2151.1891565322876
3082,2151.957147836685
3083,2152.7041397094727
3084,2153.4141318798065
3085,2154.151123523712
3086,2154.864115715027
3087,2155.531108379364
3088,2156.2001008987427
3089,2156.878093481064
3090,2157.5670857429504
3091,2158.29007768631
3092,2159.025069475174
3093,2159.763061285019
3094,2160.489053249359
3095,2161.235045194626
3096,2162.0220363140106
3097,2162.8130276203156
3098,2163.6020188331604
3099,2164.346010684967
3100,2165.0470027923584
3101,2165.754994869232
3102,2166.461987257004
3103,2167.1979789733887
3104,2167.9469707012177
3105,2168.7049622535706
3106,2169.4819536209106
3107,2170.249945163727
3108,2171.0449364185333
3109,2171.8399274349213
3110,2172.61691904068
3111,2173.380910396576
3112,2174.1259021759033
3113,2174.86789393425
3114,2175.602885723114
3115,2176.3498775959015
3116,2177.091869354248
3117,2177.8178613185883
3118,2178.5668530464172
3119,2179.3118448257446
3120,2180.053836584091
3121,2180.7938282489777
3122,2181.5338201522827
3123,2182.2718119621277
3124,2183.0218036174774
3125,2183.7647953033447
3126,2184.5367867946625
3127,2185.328778028488
3128,2186.1357691287994
3129,2186.9217603206635
3130,2187.677752017975
3131,2188.4257435798645
3132,2189.1597356796265
3133,2189.882727622986
3134,2190.589719772339
3135,2191.3177115917206
3136,2192.0607035160065
3137,2192.81969499588
3138,2193.585686445236
3139,2194.3526780605316
3140,2195.120669603348
3141,2195.869661092758
3142,2196.6006531715393
3143,2197.3246450424194
3144,2198.037637233734
3145,2198.733629465103
3146,2199.438621520996
3147,2200.15061378479
3148,2200.8726058006287
3149,2201.581597805023
3150,2202.3235895633698
3151,2203.071581363678
3152,2203.818572998047
3153,2204.5525648593903
3154,2205.2895567417145
3155,2206.0195486545563
3156,2206.718540906906
3157,2207.4155333042145
3158,2208.1015255451202
3159,2208.7905180454254
3160,2209.4725103378296
3161,2210.1485028266907
3162,2210.8524951934814
3163,2211.566487312317
3164,2212.270479440689
3165,2212.957471847534
3166,2213.636464357376
3167,2214.3144567012787
3168,2214.9764494895935
3169,2215.6474418640137
3170,2216.3094346523285
3171,2216.953427553177
3172,2217.5884203910828
3173,2218.2344133853912
3174,2218.880406141281
3175,2219.5253989696503
3176,2220.17139172554
3177,2220.824384689331
3178,2221.4693775177
3179,2222.105370283127
3180,2222.7473633289337
3181,2223.386356115341
3182,2224.0133492946625
3183,2224.6443421840668
3184,2225.2863352298737
3185,2225.9233281612396
3186,2226.5573210716248
3187,2227.185314178467
3188,2227.8123071193695
3189,2228.425300359726
3190,2229.048293352127
3191,2229.676286458969
3192,2230.3372790813446
3193,2231.0562710762024
3194,2231.8062629699707
3195,2232.5872542858124
3196,2233.3202459812164
3197,2234.028238296509
3198,2234.720230579376
3199,2235.4032230377197
3200,2236.0602157115936
3201,2236.6972086429596
3202,2237.3312015533447
3203,2237.9911942481995
3204,2238.6861865520477
3205,2239.415178537369
3206,2240.1541702747345
3207,2240.881162405014
3208,2241.5821545124054
3209,2242.2681469917297
3210,2242.9351394176483
3211,2243.578132390976
3212,2244.215125322342
3213,2244.85711812973
3214,2245.5071110725403
3215,2246.1551039218903
3216,2246.802096605301
3217,2247.481089115143
3218,2248.166081428528
3219,2248.886073589325
3220,2249.6360652446747
3221,2250.4110567569733
3222,2251.1520483493805
3223,2251.902040243149
3224,2252.655031681061
3225,2253.411023378372
3226,2254.149015188217
3227,2254.857007265091
3228,2255.574999332428
3229,2256.292991399765
3230,2257.041983127594
3231,2257.798974752426
3232,2258.5519664287567
3233,2259.3329577445984
3234,2260.1289489269257
3235,2260.9229402542114
3236,2261.664932012558
3237,2262.4359233379364
3238,2263.205914735794
3239,2263.988906145096
3240,2264.736897945404
3241,2265.508889198303
3242,2266.2738807201385
3243,2267.048872232437
3244,2267.7768642902374
3245,2268.513855934143
3246,2269.2608478069305
3247,2270.0168392658234
3248,2270.8468301296234
3249,2271.6948206424713
3250,2272.5468113422394
3251,2273.318802833557
3252,2274.0907940864563
3253,2274.831785917282
3254,2275.5477781295776
3255,2276.2387704849243
3256,2276.9427626132965
3257,2277.6557545661926
3258,2278.3677468299866
3259,2279.1137385368347
3260,2279.9217295646667
3261,2280.8427193164825
3262,2281.6647102832794
3263,2282.4427015781403
3264,2283.212692975998
3265,2283.9596848487854
3266,2284.67067694664
3267,2285.3726692199707
3268,2286.0926611423492
3269,2286.8386528491974
3270,2287.543645143509
3271,2288.2846369743347
3272,2289.007628917694
3273,2289.7216210365295
3274,2290.4476130008698
3275,2291.1846046447754
3276,2291.9335963726044
3277,2292.6505885124207
3278,2293.37558054924
3279,2294.0875725746155
3280,2294.7845647335052
3281,2295.477557182312
3282,2296.1805493831635
3283,2296.894541501999
3284,2297.5975337028503
3285,2298.328525543213
3286,2299.063517332077
3287,2299.831508874893
3288,2300.558500766754
3289,2301.319492340088
3290,2302.0664842128754
3291,2302.7984759807587
3292,2303.50146818161
3293,2304.199460506439
3294,2304.890452861786
3295,2305.5914449691772
3296,2306.270437479019
3297,2306.9704296588898
3298,2307.6444222927094
3299,2308.3234148025513
3300,2309.0074071884155
3301,2309.707399368286
3302,2310.387391805649
3303,2311.0903840065002
3304,2311.7993762493134
3305,2312.482368707657
3306,2313.1423614025116
3307,2313.8103539943695
3308,2314.4693467617035
3309,2315.108339548111
3310,2315.7353327274323
3311,2316.3633255958557
3312,2316.9923186302185
3313,2317.6293115615845
3314,2318.2673046588898
3315,2318.9352972507477
3316,2319.6022896766663
3317,2320.2862820625305
3318,2320.9962742328644
3319,2321.7102663517
3320,2322.425258398056
3321,2323.1112508773804
3322,2323.777243375778
3323,2324.448235988617
3324,2325.1102287769318
3325,2325.7592215538025
3326,2326.397214412689
3327,2327.040207386017
3328,2327.6892001628876
3329,2328.3451929092407
3330,2328.9941856861115
3331,2329.6471784114838
3332,2330.275171518326
3333,2330.909164428711
3334,2331.5581572055817
3335,2332.230149745941
3336,2332.9081423282623
3337,2333.5651350021362
3338,2334.234127521515
3339,2334.9051201343536
3340,2335.5591127872467
3341,2336.2071056365967
3342,2336.8610985279083
3343,2337.5240910053253
3344,2338.170083999634
3345,2338.815076828003
3346,2339.4700696468353
3347,2340.142062187195
3348,2340.824054479599
3349,2341.489047050476
3350,2342.1460399627686
3351,2342.8010325431824
3352,2343.4380254745483
3353,2344.0860183238983
3354,2344.7250113487244
3355,2345.365004301071
3356,2345.9979972839355
3357,2346.638990163803
3358,2347.298982858658
3359,2347.954975605011
3360,2348.583968639374
3361,2349.2029616832733
3362,2349.812954902649
3363,2350.4529478549957
3364,2351.1019406318665
3365,2351.7529335021973
3366,2352.4059262275696
3367,2353.0439190864563
3368,2353.664912223816
3369,2354.280905485153
3370,2354.8898985385895
3371,2355.5008919239044
3372,2356.118885040283
3373,2356.7418780326843
3374,2357.3558712005615
3375,2357.9778645038605
3376,2358.599857568741
3377,2359.2398505210876
3378,2359.8828432559967
3379,2360.517836332321
3380,2361.1588292121887
3381,2361.7878222465515
3382,2362.4168152809143
3383,2363.023808479309
3384,2363.638801574707
3385,2364.256794691086
3386,2364.8857877254486
3387,2365.5177807807922
3388,2366.1447739601135
3389,2366.7617671489716
3390,2367.380760192871
3391,2368.0117530822754
3392,2368.666745901108
3393,2369.302738904953
3394,2369.9327318668365
3395,2370.56472492218
3396,2371.196717977524
3397,2371.8337109088898
3398,2372.456703901291
3399,2373.084697008133
3400,2373.709690093994
3401,2374.355682849884
3402,2375.006675720215
3403,2375.6556684970856
3404,2376.316661119461
3405,2376.992653608322
3406,2377.6906459331512
3407,2378.3496387004852
3408,2379.0056314468384
3409,2379.654624223709
3410,2380.2946169376373
3411,2380.908610343933
3412,2381.5286033153534
3413,2382.14359664917
3414,2382.7425899505615
3415,2383.343583345413
3416,2383.956576347351
3417,2384.567569732666
3418,2385.2085626125336
3419,2385.8625552654266
3420,2386.5435478687286
3421,2387.1865406036377
3422,2387.8365335464478
3423,2388.5145258903503
3424,2389.1845185756683
3425,2389.8385112285614
3426,2390.499503850937
3427,2391.1504967212677
3428,2391.8094894886017
3429,2392.4454822540283
3430,2393.0614755153656
3431,2393.672468662262
3432,2394.2844619750977
3433,2394.909455060959
3434,2395.523448228836
3435,2396.1444413661957
3436,2396.767434358597
3437,2397.4074273109436
3438,2398.048420190811
3439,2398.685413122177
3440,2399.319406270981
3441,2399.9463992118835
3442,2400.5603923797607
3443,2401.1713857650757
3444,2401.768378973007
3445,2402.3613724708557
3446,2402.9623658657074
3447,2403.5673592090607
3448,2404.1633524894714
3449,2404.7693457603455
3450,2405.379338979721
3451,2406.0013320446014
3452,2406.616325378418
3453,2407.2253184318542
3454,2407.8353118896484
3455,2408.43430519104
3456,2409.0222985744476
3457,2409.6122920513153
3458,2410.2092854976654
3459,2410.8132786750793
3460,2411.417272090912
3461,2412.009265422821
3462,2412.6032588481903
3463,2413.207252264023
3464,2413.804245710373
3465,2414.3942391872406
3466,2414.993232488632
3467,2415.6072256565094
3468,2416.2332186698914
3469,2416.885211467743
3470,2417.5452041625977
3471,2418.2141966819763
3472,2418.857189655304
3473,2419.49418258667
3474,2420.1361753940582
3475,2420.7831683158875
3476,2421.4381608963013
3477,2422.0871539115906
3478,2422.7611463069916
3479,2423.4411387443542
3480,2424.1221313476562
3481,2424.8071236610413
3482,2425.4731163978577
3483,2426.1381089687347
3484,2426.805101633072
3485,2427.478094100952
3486,2428.1560864448547
3487,2428.8470788002014
3488,2429.5360713005066
3489,2430.2030639648438
3490,2430.882056236267
3491,2431.5590488910675
3492,2432.261041164398
3493,2432.9540333747864
3494,2433.6520256996155
3495,2434.3150181770325
3496,2434.9870109558105
3497,2435.665003299713
3498,2436.360995531082
3499,2437.064987897873
3500,2437.7659800052643
3501,2438.4579722881317
3502,2439.1289649009705
3503,2439.8079574108124
3504,2440.4829499721527
3505,2441.14794254303
3506,2441.8189351558685
3507,2442.4959275722504
3508,2443.1769201755524
3509,2443.8789122104645
3510,2444.564904689789
3511,2445.250897169113
3512,2445.925889492035
3513,2446.5798823833466
3514,2447.2478749752045
3515,2447.917867422104
3516,2448.606859922409
3517,2449.2888522148132
3518,2449.984844684601
3519,2450.6768369674683
3520,2451.3488295078278
3521,2451.9968223571777
3522,2452.6538150310516
3523,2453.328807592392
3524,2453.983800172806
3525,2454.6427929401398
3526,2455.295785665512
3527,2455.9517784118652
3528,2456.5897715091705
3529,2457.2277643680573
3530,2457.8587572574615
3531,2458.4987502098083
3532,2459.136743068695
3533,2459.765736103058
3534,2460.4057290554047
3535,2461.0537219047546
3536,2461.7187144756317
3537,2462.3607075214386
3538,2463.0057003498077
3539,2463.6406931877136
3540,2464.278686285019
3541,2464.9066791534424
3542,2465.516672372818
3543,2466.1266655921936
3544,2466.736658811569
3545,2467.3436522483826
3546,2467.962645292282
3547,2468.5786385536194
3548,2469.177631855011
3549,2469.7906250953674
3550,2470.4156181812286
3551,2471.060611009598
3552,2471.7106037139893
3553,2472.347596645355
3554,2472.961590051651
3555,2473.576583147049
3556,2474.1975762844086
3557,2474.8035695552826
3558,2475.3955628871918
3559,2475.98655629158
3560,2476.5805497169495
3561,2477.203542947769
3562,2477.8395359516144
3563,2478.483528614044
3564,2479.112521648407
3565,2479.751514673233
3566,2480.390507698059
3567,2481.0295004844666
3568,2481.6654934883118
3569,2482.289486646652
3570,2482.9084796905518
3571,2483.516473054886
3572,2484.125466108322
3573,2484.7334594726562
3574,2485.332452774048
3575,2485.9144463539124
3576,2486.50443983078
3577,2487.0954332351685
3578,2487.7214262485504
3579,2488.354419231415
3580,2488.9974122047424
3581,2489.6424050331116
3582,2490.2763979434967
3583,2490.895391225815
3584,2491.507384300232
3585,2492.1143777370453
3586,2492.7083711624146
3587,2493.2933645248413
3588,2493.877358198166
3589,2494.470351457596
3590,2495.047345161438
3591,2495.633338689804
3592,2496.229331970215
3593,2496.84032535553
3594,2497.441318511963
3595,2498.0343120098114
3596,2498.641305208206
3597,2499.2862980365753
3598,2499.9252910614014
3599,2500.565284013748
3600,2501.1952769756317
3601,2501.8212699890137
3602,2502.43426322937
3603,2503.024256706238
3604,2503.6062502861023
3605,2504.184243917465
3606,2504.7702374458313
3607,2505.368230819702
3608,2505.9872238636017
3609,2506.6182169914246
3610,2507.2612097263336
3611,2507.9012026786804
3612,2508.542195558548
3613,2509.181188583374
3614,2509.825181245804
3615,2510.4661741256714
3616,2511.1151671409607
3617,2511.7511599063873
3618,2512.38215303421
3619,2513.00314617157
3620,2513.6121394634247
3621,2514.224132537842
3622,2514.8371257781982
3623,2515.4621188640594
3624,2516.0911118984222
3625,2516.7041051387787
3626,2517.318098306656
3627,2517.9560911655426
3628,2518.6370837688446
3629,2519.335075855255
3630,2520.0320682525635
3631,2520.715060710907
3632,2521.394053220749
3633,2522.0730454921722
3634,2522.738038301468
3635,2523.4050307273865
3636,2524.0550236701965
3637,2524.7060163021088
3638,2525.3680090904236
3639,2526.038001537323
3640,2526.715994119644
3641,2527.406986474991
3642,2528.0949788093567
3643,2528.770971298218
3644,2529.459963798523
3645,2530.161955833435
3646,2530.862948179245
3647,2531.5519404411316
3648,2532.2339329719543
3649,2532.8979256153107
3650,2533.5719182491302
3651,2534.251910686493
3652,2534.950902938843
3653,2535.6568949222565
3654,2536.3468873500824
3655,2537.0228798389435
3656,2537.677872657776
3657,2538.322865486145
3658,2538.979858160019
3659,2539.6338510513306
3660,2540.2788438796997
3661,2540.9308366775513
3662,2541.576829433441
3663,2542.255821943283
3664,2542.942814350128
3665,2543.605806827545
3666,2544.275799512863
3667,2544.963791847229
3668,2545.63978433609
3669,2546.2927770614624
3670,2546.947769880295
3671,2547.589762687683
3672,2548.239755630493
3673,2548.8807485103607
3674,2549.539741039276
3675,2550.189733982086
3676,2550.826726913452
3677,2551.461719751358
3678,2552.0937128067017
3679,2552.7197058200836
3680,2553.346698999405
3681,2553.9626920223236
3682,2554.57568526268
3683,2555.192678451538
3684,2555.8026716709137
3685,2556.4116649627686
3686,2557.024658203125
3687,2557.644651412964
3688,2558.2626445293427
3689,2558.881637573242
3690,2559.4896309375763
3691,2560.1006240844727
3692,2560.7216172218323
3693,2561.3496103286743
3694,2561.978603363037
3695,2562.613596200943
3696,2563.242589235306
3697,2563.881582260132
3698,2564.5315749645233
3699,2565.1845676898956
3700,2565.8435604572296
3701,2566.4995532035828
3702,2567.133546113968
3703,2567.7635390758514
3704,2568.3905322551727
3705,2569.0225253105164
3706,2569.660518169403
3707,2570.2905111312866
3708,2570.9245040416718
3709,2571.5724968910217
3710,2572.222489833832
3711,2572.873482465744
3712,2573.554475069046
3713,2574.2334673404694
3714,2574.895460128784
3715,2575.522453069687
3716,2576.1324462890625
3717,2576.7374396324158
3718,2577.3404331207275
3719,2577.949426174164
3720,2578.5624194145203
3721,2579.171412706375
3722,2579.7654061317444
3723,2580.361399412155
3724,2580.959392786026
3725,2581.5603861808777
3726,2582.167379617691
3727,2582.752372980118
3728,2583.3443665504456
3729,2583.946359872818
3730,2584.563353061676
3731,2585.189346075058
3732,2585.821338891983
3733,2586.4543318748474
3734,2587.075325012207
3735,2587.7003180980682
3736,2588.318311214447
3737,2588.9333045482635
3738,2589.554297685623
3739,2590.172290802002
3740,2590.7842841148376
3741,2591.3962771892548
3742,2592.0262701511383
3743,2592.667263031006
3744,2593.325255870819
3745,2593.991248369217
3746,2594.64924120903
3747,2595.3242337703705
3748,2596.0012261867523
3749,2596.6662187576294
3750,2597.309211730957
3751,2597.9412047863007
3752,2598.5661976337433
3753,2599.180191040039
3754,2599.80118393898
3755,2600.4551768302917
3756,2601.1061697006226
3757,2601.746162414551
3758,2602.3751554489136
3759,2602.9921486377716
3760,2603.608141899109
3761,2604.225135087967
3762,2604.83012843132
3763,2605.4331216812134
3764,2606.0361149311066
3765,2606.6541080474854
3766,2607.28910112381
3767,2607.9290940761566
3768,2608.543087244034
3769,2609.1610803604126
3770,2609.7870733737946
3771,2610.4160664081573
3772,2611.04505944252
3773,2611.6590526103973
3774,2612.2700457572937
3775,2612.877039194107
3776,2613.4770324230194
3777,2614.081025838852
3778,2614.686019182205
3779,2615.2980122566223
3780,2615.9230053424835
3781,2616.53599858284
3782,2617.13299202919
3783,2617.7379851341248
3784,2618.355978488922
3785,2618.998971223831
3786,2619.636964082718
3787,2620.277957201004
3788,2620.922950029373
3789,2621.540943145752
3790,2622.1519362926483
3791,2622.7679295539856
3792,2623.3659229278564
3793,2623.962916135788
3794,2624.560909509659
3795,2625.159903049469
3796,2625.7708961963654
3797,2626.3878893852234
3798,2627.0038826465607
3799,2627.636875629425
3800,2628.2848682403564
3801,2628.9018614292145
3802,2629.5638542175293
3803,2630.232846736908
3804,2630.931838989258
3805,2631.6328313350677
3806,2632.3298234939575
3807,2632.9918162822723
3808,2633.647808790207
3809,2634.2928018569946
3810,2634.9307947158813
3811,2635.560787677765
3812,2636.1787807941437
3813,2636.785774230957
3814,2637.400767326355
3815,2638.0167605876923
3816,2638.6477534770966
3817,2639.27974653244
3818,2639.9027395248413
3819,2640.5137329101562
3820,2641.1347258090973
3821,2641.788718700409
3822,2642.442711353302
3823,2643.078704357147
3824,2643.7176973819733
3825,2644.341690301895
3826,2644.9656834602356
3827,2645.5926764011383
3828,2646.2026698589325
3829,2646.8166630268097
3830,2647.4296560287476
3831,2648.0576491355896
3832,2648.68164229393
3833,2649.307635307312
3834,2649.9096286296844
3835,2650.5036220550537
3836,2651.08961558342
3837,2651.689608812332
3838,2652.3306019306183
3839,2652.991594552994
3840,2653.6695868968964
3841,2654.343579530716
3842,2654.9745724201202
3843,2655.6015655994415
3844,2656.2295587062836
3845,2656.8345518112183
3846,2657.4275453090668
3847,2658.021538734436
3848,2658.619532108307
3849,2659.2395253181458
3850,2659.884518146515
3851,2660.519510984421
3852,2661.135504245758
3853,2661.7544972896576
3854,2662.406490087509
3855,2663.146481990814
3856,2663.8784737586975
3857,2664.600465774536
3858,2665.282458305359
3859,2665.941451072693
3860,2666.5824439525604
3861,2667.218436717987
3862,2667.840430021286
3863,2668.4564230442047
3864,2669.0624163150787
3865,2669.6524097919464
3866,2670.23340344429
3867,2670.8073971271515
3868,2671.3923904895782
3869,2672.0053837299347
3870,2672.7208757400513
3871,2673.4363679885864
3872,2674.1003606319427
3873,2674.7523531913757
3874,2675.4003460407257
3875,2676.0483388900757
3876,2676.7083315849304
3877,2677.4053239822388
3878,2678.0813164711
3879,2678.7493090629578
3880,2679.4043016433716
3881,2680.0572946071625
3882,2680.7122871875763
3883,2681.3512802124023
3884,2682.000272989273
3885,2682.64026594162
3886,2683.296258687973
3887,2683.9582512378693
3888,2684.629243850708
3889,2685.30823636055
3890,2685.9832289218903
3891,2686.6562213897705
3892,2687.3352138996124
3893,2688.0112063884735
3894,2688.691198825836
3895,2689.3631913661957
3896,2689.99618434906
3897,2690.6491770744324
3898,2691.29217004776
3899,2691.9761624336243
3900,2692.681154489517
3901,2693.4151463508606
3902,2694.1671380996704
3903,2694.9131298065186
3904,2695.647121667862
3905,2696.3411140441895
3906,2697.0341062545776
3907,2697.708098888397
3908,2698.385091304779
3909,2699.053083896637
3910,2699.723076581955
3911,2700.378069162369
3912,2701.045061826706
3913,2701.721054315567
3914,2702.408046722412
3915,2703.095039129257
3916,2703.780031681061
3917,2704.465023994446
3918,2705.1480164527893
3919,2705.814008951187
3920,2706.474001646042
3921,2707.132994413376
3922,2707.788987159729
3923,2708.447979927063
3924,2709.092972755432
3925,2709.740965604782
3926,2710.389958381653
3927,2711.0419511795044
3928,2711.7039437294006
3929,2712.358936548233
3930,2713.015929222107
3931,2713.683921813965
3932,2714.36891412735
3933,2715.054906606674
3934,2715.7328991889954
3935,2716.39289188385
3936,2717.0338847637177
3937,2717.678877592087
3938,2718.3088705539703
3939,2718.9448635578156
3940,2719.5878562927246
3941,2720.2278492450714
3942,2720.8738420009613
3943,2721.5628345012665
3944,2722.2688267230988
3945,2722.9628188610077
3946,2723.637811422348
3947,2724.307804107666
3948,2724.978796482086
3949,2725.626789331436
3950,2726.2567825317383
3951,2726.8817756175995
3952,2727.50176858902
3953,2728.1257617473602
3954,2728.77375459671
3955,2729.4167473316193
3956,2730.0737402439117
3957,2730.7517325878143
3958,2731.4587247371674
3959,2732.1847167015076
3960,2732.881709098816
3961,2733.56570148468
3962,2734.2406940460205
3963,2734.901686668396
3964,2735.5436794757843
3965,2736.1676726341248
3966,2736.789665699005
3967,2737.4336585998535
3968,2738.094651222229
3969,2738.7856435775757
3970,2739.4766359329224
3971,2740.17062830925
3972,2740.852620601654
3973,2741.5276131629944
3974,2742.1956057548523
3975,2742.83659863472
3976,2743.4875915050507
3977,2744.140584230423
3978,2744.813576698303
3979,2745.483569383621
3980,2746.131562232971
3981,2746.788554906845
3982,2747.4415476322174
3983,2748.1005403995514
3984,2748.7455332279205
3985,2749.3825261592865
3986,2750.021518945694
3987,2750.669511795044
3988,2751.327504634857
3989,2751.9864971637726
3990,2752.6294901371
3991,2753.2764830589294
3992,2753.9204757213593
3993,2754.5704686641693
3994,2755.21746134758
3995,2755.845454454422
3996,2756.4754474163055
3997,2757.1044404506683
3998,2757.736433506012
3999,2758.3744263648987
4000,2759.0114192962646
4001,2759.658412218094
4002,2760.306405067444
4003,2761.013397216797
4004,2761.7043895721436
4005,2762.3643822669983
4006,2763.0373747348785
4007,2763.69136762619
4008,2764.359360218048
4009,2765.0173528194427
4010,2765.6673455238342
4011,2766.318338394165
4012,2766.9593312740326
4013,2767.611324071884
4014,2768.2633168697357
4015,2768.9113097190857
4016,2769.584302186966
4017,2770.2872943878174
4018,2771.0212862491608
4019,2771.7142786979675
4020,2772.393270969391
4021,2773.0652635097504
4022,2773.728256225586
4023,2774.3942489624023
4024,2775.0402417182922
4025,2775.691234588623
4026,2776.346227169037
4027,2777.0122199058533
4028,2777.6652126312256
4029,2778.3322052955627
4030,2779.002197742462
4031,2779.684190273285
4032,2780.3501827716827
4033,2781.000175714493
4034,2781.644168615341
4035,2782.299161195755
4036,2782.9521539211273
4037,2783.5931470394135
4038,2784.2381398677826
4039,2784.891132593155
4040,2785.5691249370575
4041,2786.233117580414
4042,2786.8841104507446
4043,2787.5351033210754
4044,2788.194095849991
4045,2788.8350887298584
4046,2789.4540820121765
4047,2790.0720751285553
4048,2790.7060680389404
4049,2791.3570609092712
4050,2792.0130536556244
4051,2792.6490466594696
4052,2793.2930393218994
4053,2793.9380321502686
4054,2794.6000249385834
4055,2795.2470178604126
4056,2795.8850107192993
4057,2796.524003505707
4058,2797.1639964580536
4059,2797.806989431381
4060,2798.4499821662903
4061,2799.078975200653
4062,2799.718968153
4063,2800.3709609508514
4064,2801.033953666687
4065,2801.6929461956024
4066,2802.332939147949
4067,2802.9789321422577
4068,2803.617924928665
4069,2804.2629177570343
4070,2804.8989107608795
4071,2805.5219037532806
4072,2806.1508967876434
4073,2806.795889854431
4074,2807.4768822193146
4075,2808.1758744716644
4076,2808.8438670635223
4077,2809.520859479904
4078,2810.1788523197174
4079,2810.8418447971344
4080,2811.495837688446
4081,2812.1398305892944
4082,2812.7818233966827
4083,2813.428816318512
4084,2814.073809146881
4085,2814.7188019752502
4086,2815.355794906616
4087,2816.0227875709534
4088,2816.7277796268463
4089,2817.4397718906403
4090,2818.1187641620636
4091,2818.8107566833496
4092,2819.4987490177155
4093,2820.1837413311005
4094,2820.838734149933
4095,2821.486726999283
4096,2822.1337196826935
4097,2822.7807126045227
4098,2823.4217054843903
4099,2824.050698518753
4100,2824.696691274643
4101,2825.346684217453
4102,2826.0186767578125
4103,2826.6746695041656
4104,2827.3016624450684
4105,2827.9096558094025
4106,2828.5246489048004
4107,2829.164641857147
4108,2829.8056347370148
4109,2830.4566276073456
4110,2831.0906205177307
4111,2831.7146134376526
4112,2832.329606771469
4113,2832.947599887848
4114,2833.5605931282043
4115,2834.1775863170624
4116,2834.787579536438
4117,2835.391572713852
4118,2835.9945662021637
4119,2836.614559173584
4120,2837.243552207947
4121,2837.890545129776
4122,2838.533537864685
4123,2839.184530735016
4124,2839.8395235538483
4125,2840.4985160827637
4126,2841.1405091285706
4127,2841.7675020694733
4128,2842.393495082855
4129,2843.016488313675
4130,2843.6434812545776
4131,2844.268474340439
4132,2844.890467405319
4133,2845.5174605846405
4134,2846.141453742981
4135,2846.7724466323853
4136,2847.404439687729
4137,2848.0344326496124
4138,2848.6744256019592
4139,2849.340418100357
4140,2850.007410764694
4141,2850.655403614044
4142,2851.298396587372
4143,2851.941389322281
4144,2852.5903820991516
4145,2853.2473747730255
4146,2853.890367746353
4147,2854.52836060524
4148,2855.173353433609
4149,2855.834346294403
4150,2856.488338947296
4151,2857.127331972122
4152,2857.7693247795105
4153,2858.396317720413
4154,2859.0323107242584
4155,2859.673303604126
4156,2860.304296731949
4157,2860.9342896938324
4158,2861.5752825737
4159,2862.234275341034
4160,2862.885267972946
4161,2863.5312609672546
4162,2864.19225358963
4163,2864.8652460575104
4164,2865.527238845825
4165,2866.1692316532135
4166,2866.812224626541
4167,2867.45521736145
4168,2868.0942103862762
4169,2868.7112035751343
4170,2869.327196598053
4171,2869.952189683914
4172,2870.583182811737
4173,2871.215175628662
4174,2871.854168653488
4175,2872.511161327362
4176,2873.192153930664
4177,2873.8791460990906
4178,2874.5471386909485
4179,2875.222131252289
4180,2875.8961238861084
4181,2876.576116323471
4182,2877.2281091213226
4183,2877.8821017742157
4184,2878.518094778061
4185,2879.16308760643
4186,2879.7980806827545
4187,2880.428073644638
4188,2881.0750663280487
4189,2881.7340590953827
4190,2882.4140515327454
4191,2883.099044084549
4192,2883.764036655426
4193,2884.430029153824
4194,2885.111021757126
4195,2885.787014245987
4196,2886.4390070438385
4197,2887.0839998722076
4198,2887.713992834091
4199,2888.3419859409332
4200,2888.9669790267944
4201,2889.594971895218
4202,2890.233964920044
4203,2890.9249572753906
4204,2891.6719489097595
4205,2892.4009408950806
4206,2893.162932395935
4207,2893.9109241962433
4208,2894.604916572571
4209,2895.280909061432
4210,2895.933901786804
4211,2896.582894563675
4212,2897.221887588501
4213,2897.853880405426
4214,2898.492873430252
4215,2899.1448662281036
4216,2899.8468582630157
4217,2900.544850587845
4218,2901.259842634201
4219,2901.963835000992
4220,2902.676826953888
4221,2903.345819711685
4222,2904.0098123550415
4223,2904.667804956436
4224,2905.32479763031
4225,2905.97479057312
4226,2906.6147832870483
4227,2907.246776342392
4228,2907.8757693767548
4229,2908.510762453079
4230,2909.15975522995
4231,2909.793748140335
4232,2910.416741132736
4233,2911.0427343845367
4234,2911.715726852417
4235,2912.4497187137604
4236,2913.2037103176117
4237,2913.9537019729614
4238,2914.672693967819
4239,2915.3866860866547
4240,2916.0856783390045
4241,2916.7556710243225
4242,2917.39666390419
4243,2918.0216569900513
4244,2918.6476500034332
4245,2919.2806429862976
4246,2919.9346356391907
4247,2920.603628396988
4248,2921.3176205158234
4249,2922.067612171173
4250,2922.8016040325165
4251,2923.513596057892
4252,2924.1955885887146
4253,2924.868581056595
4254,2925.5345735549927
4255,2926.1995663642883
4256,2926.857558965683
4257,2927.496551990509
4258,2928.141544818878
4259,2928.7835376262665
4260,2929.432530403137
4261,2930.080523252487
4262,2930.7365159988403
4263,2931.407508611679
4264,2932.1784999370575
4265,2932.936491727829
4266,2933.660483598709
4267,2934.3834755420685
4268,2935.0984675884247
4269,2935.7774600982666
4270,2936.40745306015
4271,2937.008446455002
4272,2937.6004400253296
4273,2938.2064332962036
4274,2938.858426094055
4275,2939.563418149948
4276,2940.321409702301
4277,2941.0824012756348
4278,2941.8433928489685
4279,2942.557384967804
4280,2943.2433774471283
4281,2943.89537024498
4282,2944.532363176346
4283,2945.1563560962677
4284,2945.7713494300842
4285,2946.3743426799774
4286,2946.986335992813
4287,2947.6003291606903
4288,2948.2223222255707
4289,2948.8543152809143
4290,2949.492308139801
4291,2950.11230134964
4292,2950.73229432106
4293,2951.343287706375
4294,2951.958280801773
4295,2952.5772738456726
4296,2953.1972670555115
4297,2953.8252601623535
4298,2954.455253124237
4299,2955.0822460651398
4300,2955.721239089966
4301,2956.3622319698334
4302,2957.0102248191833
4303,2957.6452176570892
4304,2958.268210887909
4305,2958.896203994751
4306,2959.5261969566345
4307,2960.1611897945404
4308,2960.7891829013824
4309,2961.4121758937836
4310,2962.047168970108
4311,2962.7161614894867
4312,2963.39915394783
4313,2964.070146560669
4314,2964.74613904953
4315,2965.4271314144135
4316,2966.1031239032745
4317,2966.7701165676117
4318,2967.448109149933
4319,2968.11310172081
4320,2968.747094631195
4321,2969.3880875110626
4322,2970.0280804634094
4323,2970.697072982788
4324,2971.365065574646
4325,2972.0370581150055
4326,2972.6990509033203
4327,2973.359043598175
4328,2974.010036468506
4329,2974.6510293483734
4330,2975.280022382736
4331,2975.9050154685974
4332,2976.535008430481
4333,2977.1510014533997
4334,2977.7729947566986
4335,2978.402987718582
4336,2979.057980298996
4337,2979.71697306633
4338,2980.395965576172
4339,2981.059958219528
4340,2981.7529504299164
4341,2982.4479427337646
4342,2983.1499350070953
4343,2983.8449273109436
4344,2984.507920026779
4345,2985.189912557602
4346,2985.860904932022
4347,2986.536897420883
4348,2987.2118899822235
4349,2987.8718826770782
4350,2988.5448751449585
4351,2989.2158677577972
4352,2989.9218599796295
4353,2990.6368520259857
4354,2991.3358442783356
4355,2992.052836418152
4356,2992.7748284339905
4357,2993.485820531845
4358,2994.1778128147125
4359,2994.874805212021
4360,2995.5607974529266
4361,2996.252789735794
4362,2996.9277822971344
4363,2997.5917749404907
4364,2998.2607674598694
4365,2998.9717597961426
4366,2999.7387511730194
4367,3000.494742870331
4368,3001.2767341136932
4369,3002.0227258205414
4370,3002.774717569351
4371,3003.5067093372345
4372,3004.217701435089
4373,3004.8976941108704
4374,3005.5986862182617
4375,3006.276678800583
4376,3006.961671113968
4377,3007.637663602829
4378,3008.3126561641693
4379,3009.003648519516
4380,3009.7746398448944
4381,3010.56863117218
4382,3011.31862282753
4383,3012.055614709854
4384,3012.7666068077087
4385,3013.4655990600586
4386,3014.1455914974213
4387,3014.7985842227936
4388,3015.461576938629
4389,3016.146569252014
4390,3016.870561361313
4391,3017.6015532016754
4392,3018.3225452899933
4393,3019.0465371608734
4394,3019.8095288276672
4395,3020.5635204315186
4396,3021.285512447357
4397,3021.9685049057007
4398,3022.658497095108
4399,3023.346489429474
4400,3024.032481908798
4401,3024.7194743156433
4402,3025.41046667099
4403,3026.128458738327
4404,3026.8784503936768
4405,3027.641441822052
4406,3028.319434404373
4407,3028.968427181244
4408,3029.621419906616
4409,3030.2674129009247
4410,3030.9114055633545
4411,3031.5843982696533
4412,3032.2743904590607
4413,3032.920383453369
4414,3033.56937623024
4415,3034.211369037628
4416,3034.853362083435
4417,3035.48535490036
4418,3036.127347946167
4419,3036.759340763092
4420,3037.3843338489532
4421,3038.0013270378113
4422,3038.62132024765
4423,3039.2323133945465
4424,3039.854306459427
4425,3040.4682998657227
4426,3041.096292734146
4427,3041.738285779953
4428,3042.3692786693573
4429,3042.9932718276978
4430,3043.6342647075653
4431,3044.2852573394775
4432,3044.9252502918243
4433,3045.5722432136536
4434,3046.208236217499
4435,3046.8372292518616
4436,3047.4662222862244
4437,3048.0912153720856
4438,3048.713208436966
4439,3049.327201604843
4440,3049.944194793701
4441,3050.5721876621246
4442,3051.2311804294586
4443,3051.8901731967926
4444,3052.5571658611298
4445,3053.2171585559845
4446,3053.896150827408
4447,3054.532143831253
4448,3055.1951365470886
4449,3055.865128993988
4450,3056.541121482849
4451,3057.217114210129
4452,3057.8581070899963
4453,3058.502099752426
4454,3059.1290929317474
4455,3059.7460861206055
4456,3060.359079360962
4457,3060.979072332382
4458,3061.6060655117035
4459,3062.236058473587
4460,3062.86505150795
4461,3063.4770448207855
4462,3064.0750381946564
4463,3064.672031402588
4464,3065.2680249214172
4465,3065.8630182743073
4466,3066.461011648178
4467,3067.069005012512
4468,3067.672998189926
4469,3068.267991542816
4470,3068.8559851646423
4471,3069.4589784145355
4472,3070.068971633911
4473,3070.685964822769
4474,3071.303957939148
4475,3071.9249510765076
4476,3072.5479440689087
4477,3073.17293715477
4478,3073.7959303855896
4479,3074.408923625946
4480,3075.01291680336
4481,3075.6179101467133
4482,3076.224903345108
4483,3076.835896730423
4484,3077.458889722824
4485,3078.086882829666
4486,3078.7618753910065
4487,3079.4488677978516
4488,3080.1138603687286
4489,3080.7618532180786
4490,3081.4178459644318
4491,3082.068838596344
4492,3082.6848318576813
4493,3083.292824983597
4494,3083.89781832695
4495,3084.5198113918304
4496,3085.137804746628
4497,3085.7617976665497
4498,3086.3797907829285
4499,3086.992784023285
4500,3087.6027772426605
4501,3088.2167704105377
4502,3088.8177638053894
4503,3089.4067573547363
4504,3090.0067505836487
4505,3090.644743680954
4506,3091.2827365398407
4507,3091.904729604721
4508,3092.5267226696014
4509,3093.1457159519196
4510,3093.7697088718414
4511,3094.398701906204
4512,3095.039694786072
4513,3095.6916875839233
4514,3096.3526804447174
4515,3097.021672964096
4516,3097.7026653289795
4517,3098.3846578598022
4518,3099.062650203705
4519,3099.737642765045
4520,3100.4016354084015
4521,3101.044628381729
4522,3101.6726212501526
4523,3102.3036143779755
4524,3102.9396073818207
4525,3103.600600004196
4526,3104.279592514038
4527,3104.969584941864
4528,3105.663577079773
4529,3106.362569332123
4530,3107.038561820984
4531,3107.7035546302795
4532,3108.361547231674
4533,3109.027539730072
4534,3109.711532354355
4535,3110.395524740219
4536,3111.0845170021057
4537,3111.779509305954
4538,3112.4655017852783
4539,3113.159494161606
4540,3113.852486371994
4541,3114.5364787578583
4542,3115.2234711647034
4543,3115.91246342659
4544,3116.6084558963776
4545,3117.2954483032227
4546,3117.967440843582
4547,3118.6574330329895
4548,3119.3444254398346
4549,3120.039417743683
4550,3120.747410058975
4551,3121.4314024448395
4552,3122.114394903183
4553,3122.785387277603
4554,3123.4833796024323
4555,3124.214371442795
4556,3124.9543633461
4557,3125.6683554649353
4558,3126.3843474388123
4559,3127.1043395996094
4560,3127.8163316249847
4561,3128.502324104309
4562,3129.1973161697388
4563,3129.886308670044
4564,3130.570301055908
4565,3131.2532935142517
4566,3131.9102861881256
4567,3132.585278749466
4568,3133.2742710113525
4569,3133.9762632846832
4570,3134.6742556095123
4571,3135.3582479953766
4572,3136.0492403507233
4573,3136.751232624054
4574,3137.458224773407
4575,3138.1442170143127
4576,3138.833209514618
4577,3139.5142018795013
4578,3140.2031943798065
4579,3140.893186569214
4580,3141.579179048538
4581,3142.250171661377
4582,3142.9211642742157
4583,3143.5961565971375
4584,3144.273149251938
4585,3144.9331419467926
4586,3145.5711348056793
4587,3146.191128015518
4588,3146.796121120453
4589,3147.4301142692566
4590,3148.097106695175
4591,3148.7930991649628
4592,3149.477091550827
4593,3150.1210844516754
4594,3150.7670772075653
4595,3151.4140701293945
4596,3152.0790627002716
4597,3152.731055498123
4598,3153.3850481510162
4599,3154.0350410938263
4600,3154.6750338077545
4601,3155.307026863098
4602,3155.93501996994
4603,3156.5590131282806
4604,3157.1740062236786
4605,3157.787999391556
4606,3158.3999927043915
4607,3159.0149857997894
4608,3159.6379787921906
4609,3160.2679719924927
4610,3160.9049649238586
4611,3161.557957649231
4612,3162.212950229645
4613,3162.889942884445
4614,3163.557935476303
4615,3164.231927871704
4616,3164.893920660019
4617,3165.56991314888
4618,3166.2409057617188
4619,3166.9098982810974
4620,3167.5798909664154
4621,3168.249883413315
4622,3168.9268758296967
4623,3169.6088683605194
4624,3170.299860715866
4625,3170.9838531017303
4626,3171.675845384598
4627,3172.3488380908966
4628,3173.009830713272
4629,3173.67782330513
4630,3174.3398158550262
4631,3175.012808561325
4632,3175.680801153183
4633,3176.34579372406
4634,3177.0147862434387
4635,3177.697778701782
4636,3178.388771057129
4637,3179.0687634944916
4638,3179.749755859375
4639,3180.4237484931946
4640,3181.1017410755157
4641,3181.7767333984375
4642,3182.422726392746
4643,3183.067719221115
4644,3183.7097120285034
4645,3184.3517050743103
4646,3184.9886980056763
4647,3185.6316907405853
4648,3186.272683620453
4649,3186.9356763362885
4650,3187.617668867111
4651,3188.3126611709595
4652,3188.970653772354
4653,3189.641646385193
4654,3190.309638977051
4655,3190.973631620407
4656,3191.6346242427826
4657,3192.281617164612
4658,3192.923609972
4659,3193.5686028003693
4660,3194.2135956287384
4661,3194.868588447571
4662,3195.535581111908
4663,3196.189573764801
4664,3196.8595662117004
4665,3197.5205590724945
4666,3198.1885516643524
4667,3198.8725440502167
4668,3199.52853679657
4669,3200.164529800415
4670,3200.7925226688385
4671,3201.4175157546997
4672,3202.0545086860657
4673,3202.7025015354156
4674,3203.3674941062927
4675,3204.024487018585
4676,3204.676479578018
4677,3205.3174726963043
4678,3205.9604654312134
4679,3206.6044583320618
4680,3207.247451066971
4681,3207.9094438552856
4682,3208.5664365291595
4683,3209.2234292030334
4684,3209.880422115326
4685,3210.5464146137238
4686,3211.1954073905945
4687,3211.8234004974365
4688,3212.4513936042786
4689,3213.082386493683
4690,3213.707379579544
4691,3214.3313727378845
4692,3214.9493658542633
4693,3215.5603590011597
4694,3216.1713523864746
4695,3216.7843453884125
4696,3217.388338804245
4697,3218.006331920624
4698,3218.629324913025
4699,3219.2613179683685
4700,3219.896311044693
4701,3220.550303697586
4702,3221.201296567917
4703,3221.854289293289
4704,3222.522281885147
4705,3223.20427441597
4706,3223.905266523361
4707,3224.6112587451935
4708,3225.312250852585
4709,3225.9972434043884
4710,3226.694235563278
4711,3227.362228155136
4712,3228.0372207164764
4713,3228.691213607788
4714,3229.3472061157227
4715,3229.9951989650726
4716,3230.66219162941
4717,3231.38818359375
4718,3232.151175260544
4719,3232.9241666793823
4720,3233.661158323288
4721,3234.3961503505707
4722,3235.1011424064636
4723,3235.786134958267
4724,3236.4391276836395
4725,3237.0941202640533
4726,3237.7381131649017
4727,3238.4011058807373
4728,3239.053098678589
4729,3239.6920914649963
4730,3240.3310844898224
4731,3240.997077226639
4732,3241.7000694274902
4733,3242.411061525345
4734,3243.087054014206
4735,3243.7650463581085
4736,3244.41903924942
4737,3245.077031850815
4738,3245.7170248031616
4739,3246.3450179100037
4740,3246.976010799408
4741,3247.6110038757324
4742,3248.257996559143
4743,3248.8849897384644
4744,3249.505982875824
4745,3250.1259758472443
4746,3250.7609689235687
4747,3251.3989617824554
4748,3252.0169548988342
4749,3252.6449480056763
4750,3253.2759408950806
4751,3253.9179339408875
4752,3254.567926645279
4753,3255.206919670105
4754,3255.8479125499725
4755,3256.4829053878784
4756,3257.13489818573
4757,3257.796890974045
4758,3258.4538836479187
4759,3259.1328761577606
4760,3259.8178684711456
4761,3260.5138607025146
4762,3261.207853078842
4763,3261.895845413208
4764,3262.5508382320404
4765,3263.2178308963776
4766,3263.879823446274
4767,3264.54381608963
4768,3265.223808526993
4769,3265.909801006317
4770,3266.588793516159
4771,3267.2717859745026
4772,3267.9537782669067
4773,3268.628770828247
4774,3269.3007633686066
4775,3269.9677560329437
4776,3270.6267488002777
4777,3271.288741350174
4778,3271.972733736038
4779,3272.6667261123657
4780,3273.364718437195
4781,3274.0447108745575
4782,3274.745702981949
4783,3275.432695388794
4784,3276.1246876716614
4785,3276.7946803569794
4786,3277.4496731758118
4787,3278.103665828705
4788,3278.740658760071
4789,3279.3716518878937
4790,3279.9876449108124
4791,3280.5926382541656
4792,3281.286630630493
4793,3282.007122516632
4794,3282.7276146411896
4795,3283.391607284546
4796,3284.045599937439
4797,3284.682592868805
4798,3285.3035860061646
4799,3285.907579421997
4800,3286.4995727539062
4801,3287.089566230774
4802,3287.6855595111847
4803,3288.293552875519
4804,3288.9065461158752
4805,3289.504539489746
4806,3290.122532606125
4807,3290.750525712967
4808,3291.3915185928345
4809,3292.038511276245
4810,3292.6955041885376
4811,3293.3414969444275
4812,3293.990489721298
4813,3294.628482580185
4814,3295.276475429535
4815,3295.915468454361
4816,3296.561461210251
4817,3297.1944541931152
4818,3297.8334472179413
4819,3298.4834399223328
4820,3299.1454327106476
4821,3299.8214251995087
4822,3300.5294172763824
4823,3301.2244095802307
4824,3301.928401708603
4825,3302.634393930435
4826,3303.3373861312866
4827,3304.023378610611
4828,3304.678371191025
4829,3305.334363937378
4830,3305.9743568897247
4831,3306.6223497390747
4832,3307.2713425159454
4833,3307.8983356952667
4834,3308.5113286972046
4835,3309.1563215255737
4836,3309.8943135738373
4837,3310.6323053836823
4838,3311.3112976551056
4839,3311.9812903404236
4840,3312.6412830352783
4841,3313.29327583313
4842,3313.9322686195374
4843,3314.5572617053986
4844,3315.1872549057007
4845,3315.8242478370667
4846,3316.4682404994965
4847,3317.114233493805
4848,3317.771226167679
4849,3318.424218893051
4850,3319.075211763382
4851,3319.726204395294
4852,3320.3841972351074
4853,3321.0511898994446
4854,3321.7191824913025
4855,3322.3821749687195
4856,3323.0381677150726
4857,3323.6981604099274
4858,3324.3531532287598
4859,3325.006145954132
4860,3325.6721386909485
4861,3326.331131219864
4862,3326.996123790741
4863,3327.652116537094
4864,3328.312109231949
4865,3328.962102174759
4866,3329.6280946731567
4867,3330.289087295532
4868,3330.9330801963806
4869,3331.586072921753
4870,3332.2370657920837
4871,3332.9000585079193
4872,3333.5730509757996
4873,3334.2410435676575
4874,3334.89403629303
4875,3335.5590291023254
4876,3336.2120218276978
4877,3336.8690145015717
4878,3337.531007051468
4879,3338.173000097275
4880,3338.8299927711487
4881,3339.4979853630066
4882,3340.1999776363373
4883,3340.8959698677063
4884,3341.564962387085
4885,3342.229954957962
4886,3342.8949477672577
4887,3343.5889399051666
4888,3344.2929322719574
4889,3344.9809246063232
4890,3345.6349172592163
4891,3346.2989099025726
4892,3346.9499027729034
4893,3347.6008954048157
4894,3348.2318885326385
4895,3348.8798813819885
4896,3349.559873819351
4897,3350.297865629196
4898,3351.05885720253
4899,3351.7718493938446
4900,3352.4398419857025
4901,3353.1168344020844
4902,3353.8018267154694
4903,3354.497819185257
4904,3355.2088112831116
4905,3355.918803215027
4906,3356.607795715332
4907,3357.2807881832123
4908,3357.9447808265686
4909,3358.6067736148834
4910,3359.267766237259
4911,3359.9397587776184
4912,3360.6157512664795
4913,3361.3087434768677
4914,3362.0047359466553
4915,3362.6767284870148
4916,3363.3397209644318
4917,3363.995713710785
4918,3364.6527066230774
4919,3365.3146991729736
4920,3365.966691970825
4921,3366.62468457222
4922,3367.2796773910522
4923,3367.950670003891
4924,3368.616662502289
4925,3369.2876551151276
4926,3369.959647655487
4927,3370.61564040184
4928,3371.2626333236694
4929,3371.91162610054
4930,3372.5646188259125
4931,3373.219611644745
4932,3373.8796043395996
4933,3374.5245971679688
4934,3375.1745898723602
4935,3375.82058262825
4936,3376.4725754261017
4937,3377.130568265915
4938,3377.775561094284
4939,3378.442553758621
4940,3379.1235461235046
4941,3379.8235383033752
4942,3380.5285305976868
4943,3381.2075231075287
4944,3381.902515411377
4945,3382.5945076942444
4946,3383.2904999256134
4947,3383.970492362976
4948,3384.6244852542877
4949,3385.2714779376984
4950,3385.931470632553
4951,3386.6164631843567
4952,3387.328455209732
4953,3388.033447265625
4954,3388.7384395599365
4955,3389.4624314308167
4956,3390.187423467636
4957,3390.9204154014587
4958,3391.613407611847
4959,3392.305400133133
4960,3392.9823925495148
4961,3393.6703848838806
4962,3394.3613772392273
4963,3395.050369501114
4964,3395.728362083435
4965,3396.4083545207977
4966,3397.089346885681
4967,3397.7963392734528
4968,3398.48633146286
4969,3399.1783237457275
4970,3399.866316318512
4971,3400.5763082504272
4972,3401.2763006687164
4973,3401.9442932605743
4974,3402.594285964966
4975,3403.2452788352966
4976,3403.9142713546753
4977,3404.5952637195587
4978,3405.2692563533783
4979,3405.9422488212585
4980,3406.64724111557
4981,3407.355233192444
4982,3408.082225084305
4983,3408.789217233658
4984,3409.47020983696
4985,3410.155202150345
4986,3410.8341946601868
4987,3411.5171871185303
4988,3412.194179534912
4989,3412.8631720542908
4990,3413.5641644001007
4991,3414.2861564159393
4992,3415.0431480407715
4993,3415.7921397686005
4994,3416.4991319179535
4995,3417.2141239643097
4996,3417.909116268158
4997,3418.604108572006
4998,3419.2971007823944
4999,3419.9590935707092
5000,3420.6290860176086
5001,3421.303078651428
5002,3421.9860711097717
5003,3422.651063680649
5004,3423.32905626297
5005,3424.034048318863
5006,3424.772040128708
5007,3425.4950320720673
5008,3426.180024623871
5009,3426.8710169792175
5010,3427.552009344101
5011,3428.229001760483
5012,3428.8919944763184
5013,3429.552987098694
5014,3430.2189798355103
5015,3430.9039721488953
5016,3431.5879645347595
5017,3432.2459573745728
5018,3432.918949842453
5019,3433.595942258835
5020,3434.2749347686768
5021,3434.9549272060394
5022,3435.6059200763702
5023,3436.2419130802155
5024,3436.863906145096
5025,3437.5068991184235
5026,3438.181891441345
5027,3438.8678839206696
5028,3439.5438764095306
5029,3440.196869134903
5030,3440.8288621902466
5031,3441.450855255127
5032,3442.05384850502
5033,3442.6488420963287
5034,3443.2418353557587
5035,3443.8388288021088
5036,3444.4318222999573
5037,3445.0238156318665
5038,3445.6108090877533
5039,3446.200802564621
5040,3446.7877962589264
5041,3447.3767895698547
5042,3447.962783098221
5043,3448.539776802063
5044,3449.117770433426
5045,3449.6957638263702
5046,3450.2817573547363
5047,3450.8767507076263
5048,3451.4757442474365
5049,3452.086737394333
5050,3452.6977305412292
5051,3453.3247237205505
5052,3453.9627165794373
5053,3454.603709459305
5054,3455.2217025756836
5055,3455.8416957855225
5056,3456.4566888809204
5057,3457.071682214737
5058,3457.6906752586365
5059,3458.3076684474945
5060,3458.9166617393494
5061,3459.5206549167633
5062,3460.124648332596
5063,3460.7316415309906
5064,3461.3426349163055
5065,3461.9486281871796
5066,3462.561621427536
5067,3463.195614337921
5068,3463.869606733322
5069,3464.548599243164
5070,3465.2525913715363
5071,3465.9395837783813
5072,3466.633576154709
5073,3467.3135685920715
5074,3467.9385616779327
5075,3468.562554836273
5076,3469.180547952652
5077,3469.803540945053
5078,3470.4215342998505
5079,3471.043527364731
5080,3471.665520429611
5081,3472.291513442993
5082,3472.930506467819
5083,3473.5754992961884
5084,3474.22749209404
5085,3474.8824846744537
5086,3475.5244777202606
5087,3476.1604704856873
5088,3476.792463541031
5089,3477.4074568748474
5090,3478.0214500427246
5091,3478.641443014145
5092,3479.2594361305237
5093,3479.87242937088
5094,3480.4934225082397
5095,3481.11741566658
5096,3481.754408597946
5097,3482.391401529312
5098,3483.037394285202
5099,3483.7033870220184
5100,3484.3683795928955
5101,3485.0553719997406
5102,3485.7463643550873
5103,3486.3833572864532
5104,3487.0253500938416
5105,3487.6643431186676
5106,3488.3233358860016
5107,3488.974328517914
5108,3489.6093215942383
5109,3490.239314556122
5110,3490.8693075180054
5111,3491.5063004493713
5112,3492.141293525696
5113,3492.784286260605
5114,3493.3992795944214
5115,3494.0032727718353
5116,3494.607266187668
5117,3495.238259077072
5118,3495.8832519054413
5119,3496.5362446308136
5120,3497.185237646103
5121,3497.841230392456
5122,3498.4742233753204
5123,3499.104216337204
5124,3499.7142095565796
5125,3500.316202878952
5126,3500.919196128845
5127,3501.5301892757416
5128,3502.154182434082
5129,3502.7861754894257
5130,3503.4321682453156
5131,3504.0831611156464
5132,3504.7051541805267
5133,3505.328147172928
5134,3505.950140476227
5135,3506.5891332626343
5136,3507.2271263599396
5137,3507.8651192188263
5138,3508.5041120052338
5139,3509.1301052570343
5140,3509.73809838295
5141,3510.3370916843414
5142,3510.949084997177
5143,3511.609077692032
5144,3512.375069141388
5145,3513.1480605602264
5146,3513.901052236557
5147,3514.6350440979004
5148,3515.3560361862183
5149,3516.0620284080505
5150,3516.745020866394
5151,3517.411013364792
5152,3518.0710060596466
5153,3518.733998775482
5154,3519.402991294861
5155,3520.0659840106964
5156,3520.7299766540527
