,ECG_peaks
0,0.0
1,0.6080019474029541
2,1.240004062652588
3,1.8840060234069824
4,2.532008171081543
5,3.1780102252960205
6,3.81901216506958
7,4.448014259338379
8,5.067016363143921
9,5.674018144607544
10,6.267019987106323
11,6.850022077560425
12,7.4180238246917725
13,7.98602557182312
14,8.566027402877808
15,9.16702938079834
16,9.795031309127808
17,10.428033351898193
18,11.053035497665405
19,11.689037322998047
20,12.33803939819336
21,12.999041557312012
22,13.673043727874756
23,14.320045709609985
24,14.959047794342041
25,15.59404993057251
26,16.214051961898804
27,16.832053899765015
28,17.44705581665039
29,18.06405782699585
30,18.671059608459473
31,19.271061658859253
32,19.873063564300537
33,20.476065397262573
34,21.076067447662354
35,21.67906928062439
36,22.27207112312317
37,22.86007308959961
38,23.45307493209839
39,24.05907702445984
40,24.66507887840271
41,25.27708077430725
42,25.879082679748535
43,26.468084573745728
44,27.053086519241333
45,27.637088298797607
46,28.219090223312378
47,28.812092065811157
48,29.405093908309937
49,30.00809597969055
50,30.615097761154175
51,31.22409987449646
52,31.836101770401
53,32.450103759765625
54,33.067105770111084
55,33.67710757255554
56,34.284109592437744
57,34.88711142539978
58,35.48011350631714
59,36.06111526489258
60,36.63111710548401
61,37.192118883132935
62,37.756120681762695
63,38.32212257385254
64,38.88512420654297
65,39.452126026153564
66,40.03012800216675
67,40.63512992858887
68,41.258131980895996
69,41.87613391876221
70,42.48813581466675
71,43.10813784599304
72,43.73013973236084
73,44.35214185714722
74,44.9761438369751
75,45.59314560890198
76,46.20214772224426
77,46.80714964866638
78,47.409151554107666
79,48.01515340805054
80,48.61715531349182
81,49.22415733337402
82,49.831159353256226
83,50.43116116523743
84,51.03416299819946
85,51.63916492462158
86,52.258167028427124
87,52.882169008255005
88,53.50117087364197
89,54.10917282104492
90,54.71217489242554
91,55.305176734924316
92,55.88817858695984
93,56.45818042755127
94,57.02018213272095
95,57.57818412780762
96,58.134185791015625
97,58.698187589645386
98,59.27118945121765
99,59.8701913356781
100,60.5011932849884
101,61.15319538116455
102,61.827197551727295
103,62.50119972229004
104,63.152201890945435
105,63.79620385169983
106,64.43420600891113
107,65.06120800971985
108,65.68120980262756
109,66.28821182250977
110,66.88221383094788
111,67.4672155380249
112,68.04821753501892
113,68.63021922111511
114,69.19922113418579
115,69.7622230052948
116,70.32422471046448
117,70.89922666549683
118,71.49822854995728
119,72.11923050880432
120,72.74623250961304
121,73.35823440551758
122,73.97923636436462
123,74.61223840713501
124,75.24124050140381
125,75.87024235725403
126,76.49724435806274
127,77.1142463684082
128,77.72024846076965
129,78.31325030326843
130,78.90625214576721
131,79.50325393676758
132,80.10025596618652
133,80.69025778770447
134,81.27825975418091
135,81.87526154518127
136,82.47226357460022
137,83.06926536560059
138,83.66126728057861
139,84.2482693195343
140,84.83627104759216
141,85.42327284812927
142,86.00927472114563
143,86.59927678108215
144,87.1892786026001
145,87.7742805480957
146,88.36228227615356
147,88.95028424263
148,89.53728604316711
149,90.12928795814514
150,90.72128987312317
151,91.30729174613953
152,91.88629364967346
153,92.46329545974731
154,93.03929734230042
155,93.6192991733551
156,94.2103009223938
157,94.82730293273926
158,95.44730496406555
159,96.0773069858551
160,96.72730898857117
161,97.39731121063232
162,98.0523133277893
163,98.6963152885437
164,99.33931732177734
165,99.97031950950623
166,100.57432126998901
167,101.17132329940796
168,101.77832531929016
169,102.37732720375061
170,102.97432899475098
171,103.57133102416992
172,104.17233276367188
173,104.78233480453491
174,105.4023368358612
175,106.03333878517151
176,106.6843409538269
177,107.34634304046631
178,108.00934505462646
179,108.67034721374512
180,109.31834936141968
181,109.95135140419006
182,110.57535338401794
183,111.18235516548157
184,111.7743570804596
185,112.35135889053345
186,112.9133608341217
187,113.46736264228821
188,114.01536440849304
189,114.56736612319946
190,115.13336777687073
191,115.71136975288391
192,116.31537175178528
193,116.94837355613708
194,117.6063756942749
195,118.27737784385681
196,118.93338012695312
197,119.5813820362091
198,120.22238421440125
199,120.88938617706299
200,121.54838848114014
201,122.19939041137695
202,122.85739254951477
203,123.51239466667175
204,124.17439675331116
205,124.83439898490906
206,125.48640084266663
207,126.13540291786194
208,126.79640507698059
209,127.45740723609924
210,128.1184093952179
211,128.76141142845154
212,129.40641355514526
213,130.05041551589966
214,130.68641757965088
215,131.3184196949005
216,131.95642161369324
217,132.59242367744446
218,133.22942566871643
219,133.85942769050598
220,134.48542976379395
221,135.10743165016174
222,135.72643375396729
223,136.34143567085266
224,136.94343757629395
225,137.5474395751953
226,138.1474413871765
227,138.74244332313538
228,139.32044506072998
229,139.88744688034058
230,140.4484486579895
231,140.99945044517517
232,141.54445219039917
233,142.08645391464233
234,142.62045574188232
235,143.1494574546814
236,143.67045903205872
237,144.1844606399536
238,144.69446229934692
239,145.20046401023865
240,145.69846558570862
241,146.19146704673767
242,146.68046855926514
243,147.15947008132935
244,147.63847160339355
245,148.11347317695618
246,148.58147478103638
247,149.04647612571716
248,149.5174777507782
249,149.98547911643982
250,150.44748067855835
251,150.9074821472168
252,151.36348366737366
253,151.81748509407043
254,152.26948642730713
255,152.71848797798157
256,153.16748929023743
257,153.61649084091187
258,154.06849217414856
259,154.5194935798645
260,154.9694950580597
261,155.41949653625488
262,155.87049794197083
263,156.32349944114685
264,156.77650094032288
265,157.23250246047974
266,157.69350385665894
267,158.15950536727905
268,158.62450671195984
269,159.0915083885193
270,159.56250977516174
271,160.04551124572754
272,160.541512966156
273,161.0445146560669
274,161.5515160560608
275,162.0615177154541
276,162.58251953125
277,163.10852122306824
278,163.63552284240723
279,164.16952443122864
280,164.70652627944946
281,165.24652791023254
282,165.78552961349487
283,166.31653141975403
284,166.83853316307068
285,167.35753464698792
286,167.8695363998413
287,168.3785378932953
288,168.88153958320618
289,169.38654112815857
290,169.89154291152954
291,170.4045443534851
292,170.9275460243225
293,171.4505476951599
294,171.97654938697815
295,172.50655126571655
296,173.0545527935028
297,173.61855459213257
298,174.18755650520325
299,174.78155851364136
300,175.40956044197083
301,176.07856249809265
302,176.7505648136139
303,177.40756678581238
304,178.05156898498535
305,178.694571018219
306,179.33357286453247
307,179.94957494735718
308,180.5435767173767
309,181.11657857894897
310,181.66558051109314
311,182.19958209991455
312,182.7255837917328
313,183.24558544158936
314,183.7585871219635
315,184.27458882331848
316,184.79359030723572
317,185.31259202957153
318,185.83359384536743
319,186.3555953502655
320,186.87159705162048
321,187.38759875297546
322,187.90160036087036
323,188.42060208320618
324,188.9416036605835
325,189.45760536193848
326,189.96860694885254
327,190.47560858726501
328,190.98161005973816
329,191.49061179161072
330,192.00761342048645
331,192.54361510276794
332,193.10261702537537
333,193.6616187095642
334,194.2396206855774
335,194.82862257957458
336,195.42362427711487
337,196.01462626457214
338,196.60362815856934
339,197.18863010406494
340,197.7676317691803
341,198.33563375473022
342,198.90263557434082
343,199.46963739395142
344,200.02563905715942
345,200.57364082336426
346,201.12564253807068
347,201.68264436721802
348,202.23664617538452
349,202.80564785003662
350,203.36764979362488
351,203.9306514263153
352,204.4956533908844
353,205.06365513801575
354,205.62365698814392
355,206.1746587753296
356,206.73366045951843
357,207.28766226768494
358,207.84166407585144
359,208.39566588401794
360,208.95566749572754
361,209.5196692943573
362,210.08067107200623
363,210.64567303657532
364,211.21567487716675
365,211.79167675971985
366,212.37167859077454
367,212.9576804637909
368,213.54768228530884
369,214.14068412780762
370,214.73668599128723
371,215.33568787574768
372,215.93368983268738
373,216.5346918106079
374,217.13769364356995
375,217.74669575691223
376,218.35869765281677
377,218.9726996421814
378,219.58870148658752
379,220.20770359039307
380,220.83170557022095
381,221.44470739364624
382,222.05570936203003
383,222.67171144485474
384,223.28471326828003
385,223.89471530914307
386,224.50271725654602
387,225.1137192249298
388,225.72172117233276
389,226.31872296333313
390,226.913724899292
391,227.50172686576843
392,228.07772874832153
393,228.64773058891296
394,229.22073245048523
395,229.80973410606384
396,230.42073607444763
397,231.0357382297516
398,231.66174006462097
399,232.29474210739136
400,232.91674423217773
401,233.52374601364136
402,234.1297481060028
403,234.72874999046326
404,235.32375192642212
405,235.91375374794006
406,236.49975562095642
407,237.09475755691528
408,237.6907594203949
409,238.2797613143921
410,238.87276315689087
411,239.48876523971558
412,240.1067671775818
413,240.71776914596558
414,241.3337709903717
415,241.95277309417725
416,242.56377506256104
417,243.16677689552307
418,243.75677871704102
419,244.3347806930542
420,244.89178228378296
421,245.43678402900696
422,245.9717857837677
423,246.50478744506836
424,247.0507893562317
425,247.59979104995728
426,248.15079283714294
427,248.6947946548462
428,249.22979617118835
429,249.7647979259491
430,250.296799659729
431,250.82080125808716
432,251.34080290794373
433,251.85980463027954
434,252.3798062801361
435,252.90380787849426
436,253.427809715271
437,253.99381136894226
438,254.638813495636
439,255.32881569862366
440,256.0408179759979
441,256.74282026290894
442,257.44082260131836
443,258.12882471084595
444,258.8118269443512
445,259.4898290634155
446,260.1428310871124
447,260.7818331718445
448,261.39883518218994
449,261.9998371601105
450,262.5808389186859
451,263.1428406238556
452,263.7108426094055
453,264.27884435653687
454,264.8648462295532
455,265.4358479976654
456,266.01084995269775
457,266.58485174179077
458,267.15985345840454
459,267.7328553199768
460,268.31685733795166
461,268.9058589935303
462,269.4938609600067
463,270.08186292648315
464,270.6538646221161
465,271.2128665447235
466,271.76786828041077
467,272.32187008857727
468,272.8688716888428
469,273.4228734970093
470,273.9888753890991
471,274.55387711524963
472,275.1138789653778
473,275.6758806705475
474,276.2388825416565
475,276.7998843193054
476,277.35888600349426
477,277.9078879356384
478,278.4478895664215
479,278.9888913631439
480,279.52789306640625
481,280.0658948421478
482,280.60689640045166
483,281.1488981246948
484,281.69889998435974
485,282.253901720047
486,282.8099036216736
487,283.3659052848816
488,283.92790699005127
489,284.4999089241028
490,285.07291078567505
491,285.6499125957489
492,286.2219145298004
493,286.7909162044525
494,287.3509180545807
495,287.91091990470886
496,288.4699215888977
497,289.0259234905243
498,289.5769250392914
499,290.1219267845154
500,290.6739287376404
501,291.23093032836914
502,291.78493213653564
503,292.3359339237213
504,292.8919358253479
505,293.4439375400543
506,293.9899392127991
507,294.53894090652466
508,295.0899426937103
509,295.6449444293976
510,296.1899461746216
511,296.7329480648041
512,297.2789497375488
513,297.8279514312744
514,298.38295316696167
515,298.94095516204834
516,299.49695682525635
517,300.0579586029053
518,300.62196040153503
519,301.19196224212646
520,301.763964176178
521,302.33696579933167
522,302.9079678058624
523,303.47296953201294
524,304.0319712162018
525,304.5949730873108
526,305.1539750099182
527,305.7159767150879
528,306.2789785861969
529,306.8409802913666
530,307.42298221588135
531,308.0109839439392
532,308.5919859409332
533,309.1649878025055
534,309.73798966407776
535,310.3209915161133
536,310.8969931602478
537,311.47399520874023
538,312.04299688339233
539,312.6029987335205
540,313.15500044822693
541,313.6930022239685
542,314.2270038127899
543,314.76200556755066
544,315.301007270813
545,315.84500908851624
546,316.39301085472107
547,316.9580125808716
548,317.5410144329071
549,318.15101647377014
550,318.77101850509644
551,319.38702034950256
552,319.9970223903656
553,320.6100242137909
554,321.222026348114
555,321.82302808761597
556,322.4060299396515
557,322.9840319156647
558,323.5580337047577
559,324.11703538894653
560,324.66903734207153
561,325.2270390987396
562,325.7930407524109
563,326.3720426559448
564,326.95104455947876
565,327.5430464744568
566,328.16004848480225
567,328.8100504875183
568,329.4610526561737
569,330.0980546474457
570,330.7230565547943
571,331.339058637619
572,331.9490604400635
573,332.5540623664856
574,333.15106439590454
575,333.750066280365
576,334.34306812286377
577,334.9260699748993
578,335.49907183647156
579,336.0760736465454
580,336.6520755290985
581,337.23107743263245
582,337.8040792942047
583,338.37808108329773
584,338.96108293533325
585,339.5530848503113
586,340.1530866622925
587,340.7510886192322
588,341.3500905036926
589,341.95109248161316
590,342.5450942516327
591,343.1300961971283
592,343.70709800720215
593,344.2860999107361
594,344.85910177230835
595,345.42410349845886
596,345.9961054325104
597,346.5771071910858
598,347.1531090736389
599,347.7151107788086
600,348.2651126384735
601,348.8141143321991
602,349.35411620140076
603,349.8931179046631
604,350.436119556427
605,350.9791212081909
606,351.5171229839325
607,352.0511248111725
608,352.59112644195557
609,353.1411283016205
610,353.7041299343109
611,354.2891318798065
612,354.89413380622864
613,355.5041358470917
614,356.13013768196106
615,356.7531397342682
616,357.3581416606903
617,357.9491436481476
618,358.52814531326294
619,359.1071472167969
620,359.6771490573883
621,360.24515080451965
622,360.8061525821686
623,361.3611545562744
624,361.90715622901917
625,362.44715785980225
626,362.9851596355438
627,363.5341613292694
628,364.0971632003784
629,364.67116498947144
630,365.24716687202454
631,365.8401687145233
632,366.4511706829071
633,367.0661725997925
634,367.66617465019226
635,368.25717639923096
636,368.84817838668823
637,369.4321801662445
638,370.0081820487976
639,370.5731837749481
640,371.13018560409546
641,371.6791875362396
642,372.2251892089844
643,372.7601909637451
644,373.2981925010681
645,373.8391942977905
646,374.3791959285736
647,374.92119789123535
648,375.4601995944977
649,376.00020122528076
650,376.55820298194885
651,377.1222047805786
652,377.6892066001892
653,378.2582085132599
654,378.81521010398865
655,379.36521196365356
656,379.91721367836
657,380.47221541404724
658,381.0192172527313
659,381.5592188835144
660,382.097220659256
661,382.6342225074768
662,383.17322421073914
663,383.71622586250305
664,384.25422763824463
665,384.78822922706604
666,385.3212308883667
667,385.8592326641083
668,386.3982343673706
669,386.93723607063293
670,387.4942378997803
671,388.05923986434937
672,388.63424158096313
673,389.21024346351624
674,389.77924513816833
675,390.34724712371826
676,390.9152488708496
677,391.4772505760193
678,392.03025245666504
679,392.5682542324066
680,393.0952558517456
681,393.618257522583
682,394.14025926589966
683,394.6572608947754
684,395.17926239967346
685,395.7102642059326
686,396.2772660255432
687,396.8612678050995
688,397.45426964759827
689,398.04527163505554
690,398.6492736339569
691,399.26127552986145
692,399.862277507782
693,400.44627928733826
694,401.01328110694885
695,401.5862829685211
696,402.1482846736908
697,402.7022864818573
698,403.24628829956055
699,403.7882900238037
700,404.3292918205261
701,404.87229347229004
702,405.41329526901245
703,405.9572968482971
704,406.4902985095978
705,407.023300409317
706,407.55330204963684
707,408.0793037414551
708,408.60830545425415
709,409.1343071460724
710,409.67830872535706
711,410.2273106575012
712,410.7783122062683
713,411.329313993454
714,411.88231587409973
715,412.4413175582886
716,412.9933195114136
717,413.5393211841583
718,414.0793228149414
719,414.61832451820374
720,415.162326335907
721,415.70232796669006
722,416.2413296699524
723,416.7733314037323
724,417.3013331890106
725,417.82233476638794
726,418.3353364467621
727,418.84633803367615
728,419.35833978652954
729,419.87234139442444
730,420.392343044281
731,420.91634464263916
732,421.4493463039398
733,421.991348028183
734,422.5393497943878
735,423.0913517475128
736,423.6553535461426
737,424.2233552932739
738,424.78935718536377
739,425.3433587551117
740,425.889360666275
741,426.42836236953735
742,426.9583640098572
743,427.4843657016754
744,428.00836730003357
745,428.5253689289093
746,429.0413706302643
747,429.5623724460602
748,430.0903739929199
749,430.62537574768066
750,431.1713774204254
751,431.72837924957275
752,432.28338098526
753,432.82938265800476
754,433.373384475708
755,433.91938614845276
756,434.45838809013367
757,434.99338960647583
758,435.5133912563324
759,436.0283930301666
760,436.5463945865631
761,437.049396276474
762,437.54439783096313
763,438.03239941596985
764,438.51940083503723
765,439.009402513504
766,439.49740409851074
767,439.9924056529999
768,440.49040722846985
769,440.98740887641907
770,441.4894104003906
771,442.0094120502472
772,442.546413898468
773,443.09241557121277
774,443.6464173793793
775,444.192419052124
776,444.73642086982727
777,445.2774224281311
778,445.8134243488312
779,446.35342597961426
780,446.888427734375
781,447.42342948913574
782,447.95043110847473
783,448.4704327583313
784,448.9884343147278
785,449.5074360370636
786,450.02743768692017
787,450.5444393157959
788,451.06144094467163
789,451.5794427394867
790,452.100444316864
791,452.62644600868225
792,453.15144777297974
793,453.6784493923187
794,454.2024509906769
795,454.71845269203186
796,455.2334542274475
797,455.7514560222626
798,456.27145767211914
799,456.78545928001404
800,457.29546093940735
801,457.8064625263214
802,458.3164641857147
803,458.82946586608887
804,459.33646750450134
805,459.8424689769745
806,460.35147070884705
807,460.860472202301
808,461.3674738407135
809,461.874475479126
810,462.3804771900177
811,462.8864789009094
812,463.3904802799225
813,463.8894820213318
814,464.3924837112427
815,464.89448523521423
816,465.4004867076874
817,465.90948843955994
818,466.4244899749756
819,466.93849182128906
820,467.45649337768555
821,467.9824950695038
822,468.51149678230286
823,469.0374984741211
824,469.5605001449585
825,470.0795018672943
826,470.6045033931732
827,471.1335051059723
828,471.67350697517395
829,472.2195086479187
830,472.7685103416443
831,473.3225121498108
832,473.8875138759613
833,474.45351576805115
834,475.0215175151825
835,475.5905194282532
836,476.15452122688293
837,476.72152304649353
838,477.29152488708496
839,477.8635265827179
840,478.42552852630615
841,478.9795300960541
842,479.53053188323975
843,480.0835337638855
844,480.62753534317017
845,481.17053723335266
846,481.71953892707825
847,482.26854062080383
848,482.817542552948
849,483.3645441532135
850,483.9145460128784
851,484.46654772758484
852,485.0195496082306
853,485.5665512084961
854,486.116553068161
855,486.6595547199249
856,487.2015564441681
857,487.73955821990967
858,488.27755999565125
859,488.8125615119934
860,489.3545632362366
861,489.89456510543823
862,490.4305667877197
863,490.97356843948364
864,491.51857018470764
865,492.05757188796997
866,492.6015737056732
867,493.1485755443573
868,493.6935772895813
869,494.23057889938354
870,494.7685806751251
871,495.30558228492737
872,495.8445839881897
873,496.3825857639313
874,496.917587518692
875,497.45458912849426
876,497.99259090423584
877,498.52459263801575
878,499.05859422683716
879,499.5855960845947
880,500.10659766197205
881,500.6265993118286
882,501.14160108566284
883,501.6516025066376
884,502.1536042690277
885,502.65360593795776
886,503.1576073169708
887,503.66160893440247
888,504.1616106033325
889,504.6616122722626
890,505.16661381721497
891,505.677615404129
892,506.19661712646484
893,506.72461891174316
894,507.2586205005646
895,507.79662227630615
896,508.3246238231659
897,508.8476254940033
898,509.38262724876404
899,509.92362904548645
900,510.47563076019287
901,511.0286326408386
902,511.5866343975067
903,512.1476361751556
904,512.7136380672455
905,513.2776398658752
906,513.8436415195465
907,514.4086434841156
908,514.976645231247
909,515.5486469268799
910,516.1176488399506
911,516.6946506500244
912,517.2736525535583
913,517.8496544361115
914,518.4176561832428
915,518.9766578674316
916,519.5306596755981
917,520.0766615867615
918,520.6176631450653
919,521.1546649932861
920,521.6966667175293
921,522.2366683483124
922,522.7626700401306
923,523.2816717624664
924,523.7956733703613
925,524.3136749267578
926,524.8366765975952
927,525.3676784038544
928,525.9036800861359
929,526.4406816959381
930,526.9896836280823
931,527.5396852493286
932,528.1016871929169
933,528.670688867569
934,529.251690864563
935,529.8396925926208
936,530.4236946105957
937,531.0006964206696
938,531.581698179245
939,532.1577000617981
940,532.734701871872
941,533.3047037124634
942,533.8737056255341
943,534.4507074356079
944,535.0357093811035
945,535.6307110786438
946,536.2227129936218
947,536.8157150745392
948,537.401716709137
949,537.9907186031342
950,538.5937206745148
951,539.1907224655151
952,539.7827243804932
953,540.3727262020111
954,540.9607281684875
955,541.5477299690247
956,542.1247320175171
957,542.6997337341309
958,543.2767355442047
959,543.8657374382019
960,544.4607393741608
961,545.0567412376404
962,545.6517431735992
963,546.2517449855804
964,546.8557469844818
965,547.4597489833832
966,548.0477509498596
967,548.6247527599335
968,549.1987545490265
969,549.7727563381195
970,550.3497581481934
971,550.918760061264
972,551.4757618904114
973,552.0297634601593
974,552.5927653312683
975,553.1857671737671
976,553.809769153595
977,554.4367711544037
978,555.0617733001709
979,555.6967751979828
980,556.350777387619
981,556.9787793159485
982,557.590781211853
983,558.187783241272
984,558.7767851352692
985,559.3607869148254
986,559.9407887458801
987,560.5097906589508
988,561.0667924880981
989,561.6297941207886
990,562.2017960548401
991,562.7847979068756
992,563.372799873352
993,563.9658017158508
994,564.5688035488129
995,565.1878056526184
996,565.817807674408
997,566.4378094673157
998,567.0388114452362
999,567.6188132762909
1000,568.1878151893616
1001,568.7418169975281
1002,569.2858185768127
1003,569.8218204975128
1004,570.3538219928741
1005,570.8818237781525
1006,571.4078254699707
1007,571.9418270587921
1008,572.4748289585114
1009,573.0088305473328
1010,573.5418322086334
1011,574.0668339729309
1012,574.5918357372284
1013,575.1098372936249
1014,575.6268389225006
1015,576.1458406448364
1016,576.6718423366547
1017,577.2038440704346
1018,577.7518458366394
1019,578.3108475208282
1020,578.8708493709564
1021,579.4338510036469
1022,579.9958529472351
1023,580.5608546733856
1024,581.1368565559387
1025,581.7138583660126
1026,582.2868602275848
1027,582.8558621406555
1028,583.4068636894226
1029,583.9528656005859
1030,584.5318675041199
1031,585.1148693561554
1032,585.7158710956573
1033,586.331873178482
1034,586.9628751277924
1035,587.6018772125244
1036,588.2248792648315
1037,588.8368811607361
1038,589.4358830451965
1039,590.0328850746155
1040,590.6318869590759
1041,591.216888666153
1042,591.8018906116486
1043,592.389892578125
1044,592.9898943901062
1045,593.5998964309692
1046,594.2058982849121
1047,594.811900138855
1048,595.4209022521973
1049,596.0369040966034
1050,596.6559062004089
1051,597.2579081058502
1052,597.8529100418091
1053,598.4369118213654
1054,599.0019135475159
1055,599.566915512085
1056,600.1309173107147
1057,600.6999189853668
1058,601.2909209728241
1059,601.898922920227
1060,602.5169248580933
1061,603.1169266700745
1062,603.7089285850525
1063,604.3049304485321
1064,604.9109325408936
1065,605.5259344577789
1066,606.1239364147186
1067,606.7119381427765
1068,607.301940202713
1069,607.8959419727325
1070,608.5059440135956
1071,609.1089458465576
1072,609.7039477825165
1073,610.2839496135712
1074,610.8579514026642
1075,611.4279532432556
1076,611.9899551868439
1077,612.558956861496
1078,613.1419587135315
1079,613.7559607028961
1080,614.3839626312256
1081,614.9999647140503
1082,615.6109666824341
1083,616.2219686508179
1084,616.8369705677032
1085,617.4549725055695
1086,618.0489745140076
1087,618.6239762306213
1088,619.1969780921936
1089,619.7689800262451
1090,620.340981721878
1091,620.9119834899902
1092,621.4719853401184
1093,622.0269870758057
1094,622.5879888534546
1095,623.1519906520844
1096,623.7219924926758
1097,624.2879943847656
1098,624.8529961109161
1099,625.4219980239868
1100,625.9969997406006
1101,626.5690016746521
1102,627.1340034008026
1103,627.6950051784515
1104,628.2610070705414
1105,628.8360090255737
1106,629.4120106697083
1107,629.9840126037598
1108,630.5530145168304
1109,631.1230161190033
1110,631.6950180530548
1111,632.2780199050903
1112,632.8640217781067
1113,633.4590237140656
1114,634.0540256500244
1115,634.6450273990631
1116,635.2380294799805
1117,635.8420312404633
1118,636.4600331783295
1119,637.0730352401733
1120,637.6830372810364
1121,638.2860391139984
1122,638.8960411548615
1123,639.5040431022644
1124,640.0990447998047
1125,640.6830468177795
1126,641.2680485248566
1127,641.8520505428314
1128,642.4340524673462
1129,643.0140542984009
1130,643.5980560779572
1131,644.1840579509735
1132,644.7870597839355
1133,645.4020619392395
1134,646.0190637111664
1135,646.6260657310486
1136,647.2260677814484
1137,647.8320696353912
1138,648.4310715198517
1139,649.0310733318329
1140,649.6260752677917
1141,650.2130773067474
1142,650.7990791797638
1143,651.38108086586
1144,651.9760828018188
1145,652.5890848636627
1146,653.2080867290497
1147,653.8300888538361
1148,654.4460906982422
1149,655.0630927085876
1150,655.678094625473
1151,656.2910966873169
1152,656.8890986442566
1153,657.4801003932953
1154,658.0671021938324
1155,658.652104139328
1156,659.244106054306
1157,659.8391079902649
1158,660.4251098632812
1159,661.0141117572784
1160,661.6191136837006
1161,662.2341156005859
1162,662.8501176834106
1163,663.4501194953918
1164,664.039121389389
1165,664.6281232833862
1166,665.221125125885
1167,665.8121271133423
1168,666.3891289234161
1169,666.9601306915283
1170,667.5331325531006
1171,668.1081342697144
1172,668.6811361312866
1173,669.2481379508972
1174,669.8001396656036
1175,670.3481414318085
1176,670.8971433639526
1177,671.4401450157166
1178,671.9801466464996
1179,672.510148525238
1180,673.0411500930786
1181,673.5751519203186
1182,674.1041536331177
1183,674.6351552009583
1184,675.1621568202972
1185,675.6911585330963
1186,676.2211601734161
1187,676.7521619796753
1188,677.2861638069153
1189,677.8301653862
1190,678.3811671733856
1191,678.9431688785553
1192,679.5131707191467
1193,680.0901727676392
1194,680.6811745166779
1195,681.2941765785217
1196,681.9191784858704
1197,682.5491805076599
1198,683.1651825904846
1199,683.7751843929291
1200,684.3841862678528
1201,684.9881882667542
1202,685.5811901092529
1203,686.1601920127869
1204,686.7301938533783
1205,687.2961957454681
1206,687.8701975345612
1207,688.4631993770599
1208,689.0792014598846
1209,689.7072033882141
1210,690.3662054538727
1211,691.0472075939178
1212,691.7212097644806
1213,692.3782119750977
1214,693.0132138729095
1215,693.6442160606384
1216,694.2612178325653
1217,694.8632197380066
1218,695.4482216835022
1219,696.0232236385345
1220,696.60422539711
1221,697.1942272186279
1222,697.8052291870117
1223,698.4332313537598
1224,699.0632333755493
1225,699.7072353363037
1226,700.356237411499
1227,701.0152394771576
1228,701.6602416038513
1229,702.2802436351776
1230,702.8982455730438
1231,703.5022473335266
1232,704.0832493305206
1233,704.6502511501312
1234,705.2102530002594
1235,705.7692546844482
1236,706.3242564201355
1237,706.8792581558228
1238,707.4422600269318
1239,708.0282618999481
1240,708.6572639942169
1241,709.3222661018372
1242,709.9932682514191
1243,710.6522703170776
1244,711.3092722892761
1245,711.9622745513916
1246,712.5902764797211
1247,713.1902782917023
1248,713.772280216217
1249,714.3592820167542
1250,714.9522840976715
1251,715.5472860336304
1252,716.14328789711
1253,716.735289812088
1254,717.3212916851044
1255,717.9042935371399
1256,718.4812953472137
1257,719.0642971992493
1258,719.6542990207672
1259,720.2443008422852
1260,720.8353028297424
1261,721.4223046302795
1262,722.0063066482544
1263,722.5903084278107
1264,723.1783103942871
1265,723.7653121948242
1266,724.3453140258789
1267,724.9203159809113
1268,725.495317697525
1269,726.058319568634
1270,726.6173212528229
1271,727.1813230514526
1272,727.7513248920441
1273,728.3443267345428
1274,728.9553287029266
1275,729.5583307743073
1276,730.1603326797485
1277,730.7623345851898
1278,731.3553364276886
1279,731.9403383731842
1280,732.5283401012421
1281,733.1153421401978
1282,733.697343826294
1283,734.2703456878662
1284,734.8403475284576
1285,735.4103493690491
1286,735.9853513240814
1287,736.5703530311584
1288,737.1523549556732
1289,737.7303566932678
1290,738.3033585548401
1291,738.8783605098724
1292,739.4643623828888
1293,740.0483641624451
1294,740.6413660049438
1295,741.2233679294586
1296,741.8053698539734
1297,742.3943717479706
1298,742.9893736839294
1299,743.5953755378723
1300,744.2033774852753
1301,744.7973792552948
1302,745.3843812942505
1303,745.97838306427
1304,746.5713851451874
1305,747.1643869876862
1306,747.7543888092041
1307,748.3413906097412
1308,748.9243924617767
1309,749.5113945007324
1310,750.1003963947296
1311,750.6873981952667
1312,751.2743999958038
1313,751.8614020347595
1314,752.4454038143158
1315,753.0254056453705
1316,753.6074075698853
1317,754.1954092979431
1318,754.779411315918
1319,755.3574130535126
1320,755.9254148006439
1321,756.4984166622162
1322,757.0744185447693
1323,757.654420375824
1324,758.2324223518372
1325,758.8004240989685
1326,759.3644258975983
1327,759.9304277896881
1328,760.5064294338226
1329,761.1084315776825
1330,761.7264335155487
1331,762.3504354953766
1332,762.9844374656677
1333,763.631439447403
1334,764.2754416465759
1335,764.9134435653687
1336,765.5264456272125
1337,766.1244475841522
1338,766.7084493637085
1339,767.2864511013031
1340,767.854453086853
1341,768.415454864502
1342,768.9784564971924
1343,769.545458316803
1344,770.1304602622986
1345,770.7194621562958
1346,771.2984640598297
1347,771.8674657344818
1348,772.4424676895142
1349,773.0094695091248
1350,773.5604712963104
1351,774.1044728755951
1352,774.6514747142792
1353,775.2064764499664
1354,775.7694783210754
1355,776.3454802036285
1356,776.9254820346832
1357,777.5124838352203
1358,778.0964858531952
1359,778.6724874973297
1360,779.2384893894196
1361,779.8044912815094
1362,780.382493019104
1363,780.9804949760437
1364,781.6224970817566
1365,782.2994992733002
1366,782.9995014667511
1367,783.6885035037994
1368,784.3675057888031
1369,785.0395078659058
1370,785.7195100784302
1371,786.3945121765137
1372,787.0635144710541
1373,787.7195165157318
1374,788.3545184135437
1375,788.9865205287933
1376,789.6145224571228
1377,790.2455246448517
1378,790.876526594162
1379,791.513528585434
1380,792.1475305557251
1381,792.7815327644348
1382,793.4045345783234
1383,794.0345366001129
1384,794.6795387268066
1385,795.341540813446
1386,795.9755427837372
1387,796.5955448150635
1388,797.1995468139648
1389,797.7945487499237
1390,798.3905506134033
1391,798.997552394867
1392,799.6195545196533
1393,800.2345564365387
1394,800.8405582904816
1395,801.4525604248047
1396,802.0645623207092
1397,802.6835641860962
1398,803.2995662689209
1399,803.9025681018829
1400,804.4955701828003
1401,805.0835719108582
1402,805.667573928833
1403,806.2445757389069
1404,806.8175776004791
1405,807.3895792961121
1406,807.9575810432434
1407,808.5265829563141
1408,809.1095848083496
1409,809.7125866413116
1410,810.3375887870789
1411,810.982590675354
1412,811.6295928955078
1413,812.2705948352814
1414,812.9105968475342
1415,813.557599067688
1416,814.2026011943817
1417,814.8426032066345
1418,815.4776051044464
1419,816.0926070213318
1420,816.6966090202332
1421,817.2936110496521
1422,817.8976128101349
1423,818.5166149139404
1424,819.1676168441772
1425,819.8386189937592
1426,820.5076212882996
1427,821.1726233959198
1428,821.8506255149841
1429,822.5406277179718
1430,823.2246298789978
1431,823.8906319141388
1432,824.5286340713501
1433,825.1486361026764
1434,825.7536380290985
1435,826.3496398925781
1436,826.9486417770386
1437,827.5406436920166
1438,828.1236455440521
1439,828.7046473026276
1440,829.3086493015289
1441,829.9556512832642
1442,830.6466536521912
1443,831.3266558647156
1444,831.9806578159332
1445,832.6196599006653
1446,833.2636618614197
1447,833.912663936615
1448,834.5556662082672
1449,835.1726679801941
1450,835.7746698856354
1451,836.3686718940735
1452,836.9546737670898
1453,837.5316755771637
1454,838.1006774902344
1455,838.6646792888641
1456,839.2406811714172
1457,839.8256828784943
1458,840.4266848564148
1459,841.0256867408752
1460,841.6236886978149
1461,842.2176904678345
1462,842.8106925487518
1463,843.4056944847107
1464,843.9986963272095
1465,844.5836980342865
1466,845.1566998958588
1467,845.7217018604279
1468,846.2887036800385
1469,846.8577053546906
1470,847.4257071018219
1471,847.990709066391
1472,848.5557107925415
1473,849.1157126426697
1474,849.6677143573761
1475,850.2117161750793
1476,850.7547178268433
1477,851.3127195835114
1478,851.8877215385437
1479,852.4777233600616
1480,853.0617251396179
1481,853.6327271461487
1482,854.2097289562225
1483,854.7947306632996
1484,855.3777325153351
1485,855.9537343978882
1486,856.5137362480164
1487,857.0657379627228
1488,857.6227397918701
1489,858.181741476059
1490,858.7417433261871
1491,859.291745185852
1492,859.8437469005585
1493,860.4277486801147
1494,861.0177507400513
1495,861.6177525520325
1496,862.2087545394897
1497,862.7917563915253
1498,863.3837583065033
1499,863.9797601699829
1500,864.5677618980408
1501,865.1417636871338
1502,865.7127656936646
1503,866.2837674617767
1504,866.8477692604065
1505,867.4067709445953
1506,867.957772731781
1507,868.5047745704651
1508,869.0527763366699
1509,869.6067781448364
1510,870.1727797985077
1511,870.7337815761566
1512,871.303783416748
1513,871.8977854251862
1514,872.5107872486115
1515,873.1237893104553
1516,873.73779129982
1517,874.3427932262421
1518,874.9477951526642
1519,875.5447969436646
1520,876.132798910141
1521,876.706800699234
1522,877.2728025913239
1523,877.8378043174744
1524,878.3958060741425
1525,878.949807882309
1526,879.5028097629547
1527,880.0658113956451
1528,880.6478133201599
1529,881.2378151416779
1530,881.8398170471191
1531,882.4508190155029
1532,883.0828211307526
1533,883.726823091507
1534,884.3568251132965
1535,884.9698271751404
1536,885.583829164505
1537,886.1888310909271
1538,886.7828328609467
1539,887.3708348274231
1540,887.9588367938995
1541,888.539838552475
1542,889.113840341568
1543,889.6808421611786
1544,890.2488439083099
1545,890.8238458633423
1546,891.398847579956
1547,891.9698495864868
1548,892.5458512306213
1549,893.1248531341553
1550,893.7088551521301
1551,894.2898569107056
1552,894.870858669281
1553,895.4538605213165
1554,896.0368626117706
1555,896.6188642978668
1556,897.1948661804199
1557,897.770868062973
1558,898.342869758606
1559,898.9108717441559
1560,899.4738733768463
1561,900.031875371933
1562,900.5928771495819
1563,901.1568789482117
1564,901.7238807678223
1565,902.2908825874329
1566,902.8748843669891
1567,903.4688861370087
1568,904.0698881149292
1569,904.6708900928497
1570,905.2748920917511
1571,905.8778939247131
1572,906.472895860672
1573,907.0598976612091
1574,907.6418995857239
1575,908.2219014167786
1576,908.7929031848907
1577,909.3589050769806
1578,909.9209067821503
1579,910.48490858078
1580,911.047910451889
1581,911.6129121780396
1582,912.1749141216278
1583,912.7379157543182
1584,913.308917760849
1585,913.8769195079803
1586,914.445921421051
1587,915.019923210144
1588,915.5849249362946
1589,916.1419267654419
1590,916.6869285106659
1591,917.2299301624298
1592,917.7699320316315
1593,918.3069336414337
1594,918.843935251236
1595,919.3849370479584
1596,919.9289388656616
1597,920.4779405593872
1598,921.0279424190521
1599,921.5789442062378
1600,922.1299457550049
1601,922.6799476146698
1602,923.2269494533539
1603,923.7719511985779
1604,924.3169529438019
1605,924.8669545650482
1606,925.4209563732147
1607,925.9789581298828
1608,926.5449600219727
1609,927.1209619045258
1610,927.704963684082
1611,928.2959656715393
1612,928.8909673690796
1613,929.4859693050385
1614,930.0789711475372
1615,930.6729731559753
1616,931.2669749259949
1617,931.8559768199921
1618,932.4379787445068
1619,933.0079805850983
1620,933.5729823112488
1621,934.132984161377
1622,934.6949861049652
1623,935.2639877796173
1624,935.8469896316528
1625,936.4379916191101
1626,937.0349934101105
1627,937.6429953575134
1628,938.2659974098206
1629,938.8869993686676
1630,939.4950013160706
1631,940.1080033779144
1632,940.7130053043365
1633,941.312007188797
1634,941.9000089168549
1635,942.4830107688904
1636,943.0550127029419
1637,943.6210145950317
1638,944.1830163002014
1639,944.7410180568695
1640,945.3070199489594
1641,945.87402176857
1642,946.448023557663
1643,947.0240254402161
1644,947.6020271778107
1645,948.1790289878845
1646,948.7540309429169
1647,949.3310327529907
1648,949.9160346984863
1649,950.5010364055634
1650,951.0770382881165
1651,951.6480400562286
1652,952.2140419483185
1653,952.7770438194275
1654,953.3340456485748
1655,953.8860473632812
1656,954.4350490570068
1657,954.9900507926941
1658,955.5390524864197
1659,956.085054397583
1660,956.6360561847687
1661,957.1920578479767
1662,957.7500596046448
1663,958.3110613822937
1664,958.8790633678436
1665,959.4490649700165
1666,960.0200669765472
1667,960.5910687446594
1668,961.15807056427
1669,961.719072341919
1670,962.2710740566254
1671,962.8140757083893
1672,963.3500776290894
1673,963.8870792388916
1674,964.4210810661316
1675,964.955082654953
1676,965.5040843486786
1677,966.0640861988068
1678,966.6510879993439
1679,967.2680900096893
1680,967.9180920124054
1681,968.5650942325592
1682,969.2090961933136
1683,969.8470983505249
1684,970.4741003513336
1685,971.0791022777557
1686,971.6731040477753
1687,972.2511060237885
1688,972.8141076564789
1689,973.361109495163
1690,973.901111125946
1691,974.4291129112244
1692,974.9541146755219
1693,975.4811162948608
1694,976.0101180076599
1695,976.5341196060181
1696,977.0891213417053
1697,977.658123254776
1698,978.2421250343323
1699,978.8311269283295
1700,979.4301288127899
1701,980.0321307182312
1702,980.6361327171326
1703,981.2251346111298
1704,981.809136390686
1705,982.3891384601593
1706,982.9641401767731
1707,983.5261418819427
1708,984.0841438770294
1709,984.6351454257965
1710,985.1741473674774
1711,985.705148935318
1712,986.232150554657
1713,986.7581522464752
1714,987.2801539897919
1715,987.8021557331085
1716,988.3241572380066
1717,988.847158908844
1718,989.3741607666016
1719,989.9071624279022
1720,990.448163986206
1721,990.99316573143
1722,991.5401675701141
1723,992.0861692428589
1724,992.635171175003
1725,993.1821727752686
1726,993.7321746349335
1727,994.279176235199
1728,994.824177980423
1729,995.371179819107
1730,995.914181470871
1731,996.450183391571
1732,996.9831850528717
1733,997.5091867446899
1734,998.0371882915497
1735,998.5681900978088
1736,999.1051917076111
1737,999.6531934738159
1738,1000.2081952095032
1739,1000.7651970386505
1740,1001.3311989307404
1741,1001.9022006988525
1742,1002.4812026023865
1743,1003.0572044849396
1744,1003.6332061290741
1745,1004.2042081356049
1746,1004.7652099132538
1747,1005.3192117214203
1748,1005.8722133636475
1749,1006.4192152023315
1750,1006.953216791153
1751,1007.4812185764313
1752,1008.0042202472687
1753,1008.5192217826843
1754,1009.0312235355377
1755,1009.5462250709534
1756,1010.0672268867493
1757,1010.6042284965515
1758,1011.1432301998138
1759,1011.7002320289612
1760,1012.2762339115143
1761,1012.8682358264923
1762,1013.4642376899719
1763,1014.0712394714355
1764,1014.6782414913177
1765,1015.280243396759
1766,1015.8722453117371
1767,1016.4552471637726
1768,1017.0322489738464
1769,1017.5982508659363
1770,1018.1632525920868
1771,1018.725254535675
1772,1019.2892563343048
1773,1019.8532581329346
1774,1020.423259973526
1775,1020.9992616176605
1776,1021.5742635726929
1777,1022.1512653827667
1778,1022.7272672653198
1779,1023.3042690753937
1780,1023.8772709369659
1781,1024.4492726325989
1782,1025.0212745666504
1783,1025.590276479721
1784,1026.1562781333923
1785,1026.7192800045013
1786,1027.2792818546295
1787,1027.8382835388184
1788,1028.4032852649689
1789,1028.9742872714996
1790,1029.542289018631
1791,1030.1152908802032
1792,1030.6912927627563
1793,1031.2672944068909
1794,1031.8442964553833
1795,1032.4212982654572
1796,1032.9953000545502
1797,1033.567301750183
1798,1034.1393036842346
1799,1034.707305431366
1800,1035.2693073749542
1801,1035.8233089447021
1802,1036.3743107318878
1803,1036.9273126125336
1804,1037.4833142757416
1805,1038.0473160743713
1806,1038.621318101883
1807,1039.2073199748993
1808,1039.8043217658997
1809,1040.408323764801
1810,1041.011325597763
1811,1041.6153275966644
1812,1042.2123293876648
1813,1042.7973313331604
1814,1043.3793332576752
1815,1043.9553351402283
1816,1044.5263369083405
1817,1045.0833387374878
1818,1045.6373403072357
1819,1046.1953423023224
1820,1046.7563440799713
1821,1047.320345878601
1822,1047.8863475322723
1823,1048.4603493213654
1824,1049.0433511734009
1825,1049.6293530464172
1826,1050.216355085373
1827,1050.8123569488525
1828,1051.4023587703705
1829,1051.9893608093262
1830,1052.5713624954224
1831,1053.1533644199371
1832,1053.7273662090302
1833,1054.2973680496216
1834,1054.8633699417114
1835,1055.4193716049194
1836,1055.9713733196259
1837,1056.513375043869
1838,1057.0513768196106
1839,1057.5953786373138
1840,1058.1573803424835
1841,1058.7393822669983
1842,1059.3423840999603
1843,1059.9633860588074
1844,1060.597388267517
1845,1061.234390258789
1846,1061.8773922920227
1847,1062.5043942928314
1848,1063.116396188736
1849,1063.7153980731964
1850,1064.298399925232
1851,1064.863401889801
1852,1065.4204037189484
1853,1065.969405412674
1854,1066.514407157898
1855,1067.054408788681
1856,1067.5934104919434
1857,1068.1304123401642
1858,1068.6684138774872
1859,1069.203415632248
1860,1069.7384173870087
1861,1070.2744190692902
1862,1070.8074207305908
1863,1071.3434224128723
1864,1071.8764243125916
1865,1072.4074258804321
1866,1072.9404275417328
1867,1073.4754292964935
1868,1074.0084309577942
1869,1074.5354328155518
1870,1075.056434392929
1871,1075.5794360637665
1872,1076.0984377861023
1873,1076.6214394569397
1874,1077.1384410858154
1875,1077.656442642212
1876,1078.185444355011
1877,1078.7244460582733
1878,1079.273447751999
1879,1079.8374495506287
1880,1080.414451599121
1881,1081.004453420639
1882,1081.5894553661346
1883,1082.1674571037292
1884,1082.7464590072632
1885,1083.3174607753754
1886,1083.8824625015259
1887,1084.4444644451141
1888,1085.003466129303
1889,1085.5604679584503
1890,1086.1104695796967
1891,1086.6544713974
1892,1087.1974732875824
1893,1087.744474887848
1894,1088.291476726532
1895,1088.8374783992767
1896,1089.3844802379608
1897,1089.9444818496704
1898,1090.5014836788177
1899,1091.0574855804443
1900,1091.614487171173
1901,1092.1674890518188
1902,1092.7234907150269
1903,1093.2804925441742
1904,1093.8364944458008
1905,1094.3864960670471
1906,1094.9324979782104
1907,1095.4734995365143
1908,1096.0115013122559
1909,1096.5465030670166
1910,1097.080504655838
1911,1097.6115064620972
1912,1098.1365082263947
1913,1098.6615097522736
1914,1099.1855113506317
1915,1099.7145130634308
1916,1100.2505149841309
1917,1100.792516708374
1918,1101.3295183181763
1919,1101.8695199489594
1920,1102.4125218391418
1921,1102.9585235118866
1922,1103.5075252056122
1923,1104.0585269927979
1924,1104.613528728485
1925,1105.1715304851532
1926,1105.7225322723389
1927,1106.271534204483
1928,1106.8155357837677
1929,1107.3605375289917
1930,1107.9105393886566
1931,1108.467541217804
1932,1109.0285429954529
1933,1109.597544670105
1934,1110.1805465221405
1935,1110.765548467636
1936,1111.355550289154
1937,1111.9445521831512
1938,1112.526554107666
1939,1113.1015558242798
1940,1113.6735577583313
1941,1114.2325594425201
1942,1114.7835612297058
1943,1115.3345630168915
1944,1115.8855648040771
1945,1116.435566663742
1946,1116.980568408966
1947,1117.5245699882507
1948,1118.0745718479156
1949,1118.6325736045837
1950,1119.1905753612518
1951,1119.7535772323608
1952,1120.308578968048
1953,1120.8555808067322
1954,1121.396582365036
1955,1121.9315841197968
1956,1122.4635858535767
1957,1122.9955875873566
1958,1123.5245893001556
1959,1124.0595908164978
1960,1124.5875926017761
1961,1125.1155943870544
1962,1125.6425960063934
1963,1126.1695976257324
1964,1126.6955993175507
1965,1127.2196009159088
1966,1127.7376027107239
1967,1128.2546043395996
1968,1128.772605895996
1969,1129.2926075458527
1970,1129.8056092262268
1971,1130.3176109790802
1972,1130.829612493515
1973,1131.3446142673492
1974,1131.8656158447266
1975,1132.390617609024
1976,1132.9146192073822
1977,1133.4376208782196
1978,1133.9616224765778
1979,1134.4826242923737
1980,1135.0026259422302
1981,1135.5216274261475
1982,1136.0516293048859
1983,1136.5926308631897
1984,1137.1436326503754
1985,1137.699634552002
1986,1138.2606363296509
1987,1138.818638086319
1988,1139.3936398029327
1989,1139.9756417274475
1990,1140.5546436309814
1991,1141.1256453990936
1992,1141.6926472187042
1993,1142.2506489753723
1994,1142.803650856018
1995,1143.359652519226
1996,1143.920654296875
1997,1144.478656053543
1998,1145.0376579761505
1999,1145.604659795761
2000,1146.1796615123749
2001,1146.7626633644104
2002,1147.352665424347
2003,1147.9346671104431
2004,1148.5206689834595
2005,1149.0976707935333
2006,1149.6696727275848
2007,1150.2396745681763
2008,1150.7956762313843
2009,1151.3406779766083
2010,1151.8926799297333
2011,1152.449681520462
2012,1153.0146834850311
2013,1153.5976853370667
2014,1154.1976871490479
2015,1154.8116891384125
2016,1155.4196910858154
2017,1156.038693189621
2018,1156.6616950035095
2019,1157.2976970672607
2020,1157.9486992359161
2021,1158.6057012081146
2022,1159.2627034187317
2023,1159.8977053165436
2024,1160.5157074928284
2025,1161.1147093772888
2026,1161.7027111053467
2027,1162.277713060379
2028,1162.8487148284912
2029,1163.410716533661
2030,1163.9877185821533
2031,1164.5857203006744
2032,1165.220722436905
2033,1165.888724565506
2034,1166.5657267570496
2035,1167.2537288665771
2036,1167.9217309951782
2037,1168.5807330608368
2038,1169.2227351665497
2039,1169.8527371883392
2040,1170.4577391147614
2041,1171.055741071701
2042,1171.6437430381775
2043,1172.2307448387146
2044,1172.8127467632294
2045,1173.3967485427856
2046,1173.982750415802
2047,1174.5707523822784
2048,1175.153754234314
2049,1175.7337560653687
2050,1176.3097579479218
2051,1176.8767597675323
2052,1177.4357614517212
2053,1177.99476313591
2054,1178.5517649650574
2055,1179.1127667427063
2056,1179.676768541336
2057,1180.2437703609467
2058,1180.811772108078
2059,1181.3937740325928
2060,1181.9797759056091
2061,1182.569777727127
2062,1183.168779850006
2063,1183.769781589508
2064,1184.361783504486
2065,1184.9447853565216
2066,1185.5267872810364
2067,1186.1037890911102
2068,1186.6647908687592
2069,1187.2167925834656
2070,1187.7657945156097
2071,1188.3097960948944
2072,1188.8537979125977
2073,1189.4067997932434
2074,1189.979801416397
2075,1190.5728034973145
2076,1191.1908054351807
2077,1191.8258073329926
2078,1192.447809457779
2079,1193.0558114051819
2080,1193.6648132801056
2081,1194.2598152160645
2082,1194.8428170681
2083,1195.4118189811707
2084,1195.9808206558228
2085,1196.5438225269318
2086,1197.1088242530823
2087,1197.6698260307312
2088,1198.2328279018402
2089,1198.8028297424316
2090,1199.370831489563
2091,1199.9438333511353
2092,1200.5248351097107
2093,1201.0988371372223
2094,1201.6778388023376
2095,1202.25284075737
2096,1202.8198425769806
2097,1203.3758442401886
2098,1203.9258460998535
2099,1204.4718477725983
2100,1205.0158495903015
2101,1205.5548512935638
2102,1206.0958530902863
2103,1206.63685464859
2104,1207.1898565292358
2105,1207.7398581504822
2106,1208.2938599586487
2107,1208.850861787796
2108,1209.411863565445
2109,1209.9828653335571
2110,1210.5518672466278
2111,1211.1198689937592
2112,1211.6798708438873
2113,1212.2348725795746
2114,1212.7898743152618
2115,1213.3418760299683
2116,1213.8918778896332
2117,1214.4388797283173
2118,1214.982881307602
2119,1215.5258831977844
2120,1216.0758848190308
2121,1216.632886648178
2122,1217.198888540268
2123,1217.7748901844025
2124,1218.3568921089172
2125,1218.9288940429688
2126,1219.5038957595825
2127,1220.0808975696564
2128,1220.6598994731903
2129,1221.2439014911652
2130,1221.8259031772614
2131,1222.3999049663544
2132,1222.9639067649841
2133,1223.5239086151123
2134,1224.0829105377197
2135,1224.6419122219086
2136,1225.1899139881134
2137,1225.74391579628
2138,1226.2939174175262
2139,1226.8439192771912
2140,1227.40292096138
2141,1227.9879229068756
2142,1228.618924856186
2143,1229.2509269714355
2144,1229.89892911911
2145,1230.5489311218262
2146,1231.2109332084656
2147,1231.8659353256226
2148,1232.5029373168945
2149,1233.1139392852783
2150,1233.7219412326813
2151,1234.3189432621002
2152,1234.906944990158
2153,1235.4869468212128
2154,1236.0569486618042
2155,1236.6309504508972
2156,1237.2079524993896
2157,1237.7929542064667
2158,1238.3719561100006
2159,1238.9489579200745
2160,1239.5279598236084
2161,1240.1159617900848
2162,1240.7109634876251
2163,1241.3069655895233
2164,1241.9099674224854
2165,1242.5049693584442
2166,1243.0889711380005
2167,1243.658972978592
2168,1244.2239747047424
2169,1244.7849764823914
2170,1245.3499784469604
2171,1245.9129800796509
2172,1246.4739820957184
2173,1247.033983707428
2174,1247.5979855060577
2175,1248.1719872951508
2176,1248.7529892921448
2177,1249.3329911231995
2178,1249.9369931221008
2179,1250.5749950408936
2180,1251.225997209549
2181,1251.85799908638
2182,1252.4930012226105
2183,1253.1380033493042
2184,1253.7810053825378
2185,1254.42000746727
2186,1255.0550093650818
2187,1255.6680114269257
2188,1256.2680132389069
2189,1256.8640151023865
2190,1257.4410169124603
2191,1258.0090188980103
2192,1258.5640206336975
2193,1259.1100223064423
2194,1259.6540241241455
2195,1260.224025964737
2196,1260.8540279865265
2197,1261.516030073166
2198,1262.1830322742462
2199,1262.8430342674255
2200,1263.4880363941193
2201,1264.1250383853912
2202,1264.7440402507782
2203,1265.3540422916412
2204,1265.965044260025
2205,1266.5770461559296
2206,1267.1820480823517
2207,1267.773050069809
2208,1268.3590519428253
2209,1268.93905377388
2210,1269.5100555419922
2211,1270.0770573616028
2212,1270.6410591602325
2213,1271.1910610198975
2214,1271.7420628070831
2215,1272.2970645427704
2216,1272.8580663204193
2217,1273.42506814003
2218,1274.001070022583
2219,1274.58607172966
2220,1275.1730737686157
2221,1275.7660756111145
2222,1276.360077381134
2223,1276.9540793895721
2224,1277.5430812835693
2225,1278.1220831871033
2226,1278.7050850391388
2227,1279.2860867977142
2228,1279.8710887432098
2229,1280.4490904808044
2230,1281.0220923423767
2231,1281.5920941829681
2232,1282.158096075058
2233,1282.719097852707
2234,1283.2730994224548
2235,1283.822101354599
2236,1284.3711030483246
2237,1284.923104763031
2238,1285.4821066856384
2239,1286.0451083183289
2240,1286.6121101379395
2241,1287.1741120815277
2242,1287.7461137771606
2243,1288.3261156082153
2244,1288.90811753273
2245,1289.4911193847656
2246,1290.0631213188171
2247,1290.638123035431
2248,1291.209124803543
2249,1291.775126695633
2250,1292.338128566742
2251,1292.89613032341
2252,1293.4451320171356
2253,1293.9901337623596
2254,1294.5321354866028
2255,1295.0701372623444
2256,1295.6041388511658
2257,1296.1311407089233
2258,1296.6551423072815
2259,1297.1941440105438
2260,1297.7441458702087
2261,1298.3001475334167
2262,1298.8791494369507
2263,1299.4691512584686
2264,1300.0491530895233
2265,1300.629154920578
2266,1301.2061567306519
2267,1301.7641587257385
2268,1302.309160232544
2269,1302.8461620807648
2270,1303.3771636486053
2271,1303.9081654548645
2272,1304.4411671161652
2273,1304.9811689853668
2274,1305.5311706066132
2275,1306.0821723937988
2276,1306.6301741600037
2277,1307.1801760196686
2278,1307.7251777648926
2279,1308.2671794891357
2280,1308.8001811504364
2281,1309.3281826972961
2282,1309.847184419632
2283,1310.3681859970093
2284,1310.887187719345
2285,1311.4031894207
2286,1311.9181909561157
2287,1312.4291927814484
2288,1312.9401943683624
2289,1313.4531960487366
2290,1313.9731976985931
2291,1314.503199338913
2292,1315.0372009277344
2293,1315.5652027130127
2294,1316.0982043743134
2295,1316.6322062015533
2296,1317.1662077903748
2297,1317.7002096176147
2298,1318.2332112789154
2299,1318.7672128677368
2300,1319.3002145290375
2301,1319.8262162208557
2302,1320.3482179641724
2303,1320.8622195720673
2304,1321.3782212734222
2305,1321.8942229747772
2306,1322.411224603653
2307,1322.924226284027
2308,1323.4442279338837
2309,1323.9692294597626
2310,1324.4982311725616
2311,1325.0312328338623
2312,1325.5732345581055
2313,1326.1222364902496
2314,1326.6702382564545
2315,1327.2132399082184
2316,1327.7532415390015
2317,1328.2922432422638
2318,1328.8272449970245
2319,1329.3552467823029
2320,1329.8822484016418
2321,1330.40825009346
2322,1330.9332518577576
2323,1331.4552533626556
2324,1331.9742550849915
2325,1332.4952566623688
2326,1333.021258354187
2327,1333.5542602539062
2328,1334.0912618637085
2329,1334.6302635669708
2330,1335.1652653217316
2331,1335.706267118454
2332,1336.2482688426971
2333,1336.789270401001
2334,1337.3332722187042
2335,1337.868273973465
2336,1338.4012756347656
2337,1338.9332773685455
2338,1339.4682791233063
2339,1340.001280784607
2340,1340.5312824249268
2341,1341.0632841587067
2342,1341.5962858200073
2343,1342.1282875537872
2344,1342.6542892456055
2345,1343.1752908229828
2346,1343.7042925357819
2347,1344.2452943325043
2348,1344.7902960777283
2349,1345.3342978954315
2350,1345.8772995471954
2351,1346.4233012199402
2352,1346.9673030376434
2353,1347.516304731369
2354,1348.066306591034
2355,1348.6153082847595
2356,1349.1593101024628
2357,1349.7053117752075
2358,1350.2453134059906
2359,1350.7823152542114
2360,1351.3113169670105
2361,1351.8323185443878
2362,1352.3513202667236
2363,1352.8703219890594
2364,1353.3953235149384
2365,1353.9343252182007
2366,1354.4763269424438
2367,1355.0293288230896
2368,1355.6013305187225
2369,1356.1973323822021
2370,1356.810334444046
2371,1357.4103362560272
2372,1357.9963381290436
2373,1358.5833401679993
2374,1359.1673419475555
2375,1359.739343881607
2376,1360.295345544815
2377,1360.8383474349976
2378,1361.3733489513397
2379,1361.8983507156372
2380,1362.4133522510529
2381,1362.9293539524078
2382,1363.4493556022644
2383,1364.0013573169708
2384,1364.5783593654633
2385,1365.1783611774445
2386,1365.7763631343842
2387,1366.3943650722504
2388,1367.0253670215607
2389,1367.6503691673279
2390,1368.2513709068298
2391,1368.8333728313446
2392,1369.4143748283386
2393,1369.9883766174316
2394,1370.5573782920837
2395,1371.1133801937103
2396,1371.6543819904327
2397,1372.1903836727142
2398,1372.7283852100372
2399,1373.2723870277405
2400,1373.8183887004852
2401,1374.36639046669
2402,1374.9093923568726
2403,1375.4583940505981
2404,1376.0033957958221
2405,1376.549397468567
2406,1377.0923993587494
2407,1377.6334009170532
2408,1378.184402704239
2409,1378.7394044399261
2410,1379.2904062271118
2411,1379.8354079723358
2412,1380.377409696579
2413,1380.9204115867615
2414,1381.4624133110046
2415,1381.9994149208069
2416,1382.530416727066
2417,1383.0634183883667
2418,1383.5924201011658
2419,1384.1174216270447
2420,1384.6384234428406
2421,1385.1574249267578
2422,1385.6854267120361
2423,1386.2254283428192
2424,1386.7874302864075
2425,1387.3534319400787
2426,1387.9204337596893
2427,1388.502435684204
2428,1389.1014375686646
2429,1389.702439546585
2430,1390.292441368103
2431,1390.871443271637
2432,1391.44744515419
2433,1392.0154469013214
2434,1392.5814487934113
2435,1393.1314504146576
2436,1393.67445230484
2437,1394.2114539146423
2438,1394.746455669403
2439,1395.291457414627
2440,1395.8414590358734
2441,1396.39546084404
2442,1396.9434626102448
2443,1397.5014643669128
2444,1398.0734663009644
2445,1398.6704680919647
2446,1399.292470216751
2447,1399.9374723434448
2448,1400.5744743347168
2449,1401.1974761486053
2450,1401.8154783248901
2451,1402.4244801998138
2452,1403.013482093811
2453,1403.5774838924408
2454,1404.1444857120514
2455,1404.7044875621796
2456,1405.2604892253876
2457,1405.8194909095764
2458,1406.3994929790497
2459,1406.9934947490692
2460,1407.5974967479706
2461,1408.2034986019135
2462,1408.7945005893707
2463,1409.3905024528503
2464,1409.9925043582916
2465,1410.5985062122345
2466,1411.1895081996918
2467,1411.7665100097656
2468,1412.350511789322
2469,1412.9215137958527
2470,1413.489515542984
2471,1414.050517320633
2472,1414.6075191497803
2473,1415.1645209789276
2474,1415.7265226840973
2475,1416.295524597168
2476,1416.8665263652802
2477,1417.438528060913
2478,1418.022530078888
2479,1418.6165318489075
2480,1419.2135338783264
2481,1419.8035356998444
2482,1420.38853764534
2483,1420.975539445877
2484,1421.5625412464142
2485,1422.1435432434082
2486,1422.7135450839996
2487,1423.2645466327667
2488,1423.8145484924316
2489,1424.371550321579
2490,1424.9425520896912
2491,1425.53555393219
2492,1426.1395559310913
2493,1426.748557806015
2494,1427.3675599098206
2495,1428.000561952591
2496,1428.6405639648438
2497,1429.2855660915375
2498,1429.913568019867
2499,1430.5195698738098
2500,1431.113571882248
2501,1431.6965737342834
2502,1432.2785756587982
2503,1432.853577375412
2504,1433.4185791015625
2505,1433.9805810451508
2506,1434.5525827407837
2507,1435.1395847797394
2508,1435.7475867271423
2509,1436.372588634491
2510,1437.0045907497406
2511,1437.648592710495
2512,1438.3105947971344
2513,1438.9685969352722
2514,1439.6165990829468
2515,1440.2376010417938
2516,1440.826602935791
2517,1441.4246046543121
2518,1442.0026066303253
2519,1442.58060836792
2520,1443.1656103134155
2521,1443.7546122074127
2522,1444.3526141643524
2523,1444.9846160411835
2524,1445.6496181488037
2525,1446.3306205272675
2526,1446.989622592926
2527,1447.6256246566772
2528,1448.2626266479492
2529,1448.8916285037994
2530,1449.5186305046082
2531,1450.1196324825287
2532,1450.7046344280243
2533,1451.2906363010406
2534,1451.8596379756927
2535,1452.4276399612427
2536,1452.9946417808533
2537,1453.5656435489655
2538,1454.1516454219818
2539,1454.7806475162506
2540,1455.4486496448517
2541,1456.108651638031
2542,1456.750653743744
2543,1457.4016559123993
2544,1458.0496578216553
2545,1458.6906599998474
2546,1459.304661989212
2547,1459.9046638011932
2548,1460.5146658420563
2549,1461.1136677265167
2550,1461.7016694545746
2551,1462.273671388626
2552,1462.8376731872559
2553,1463.4106750488281
2554,1463.9956767559052
2555,1464.597678899765
2556,1465.2126808166504
2557,1465.8276827335358
2558,1466.4486846923828
2559,1467.0786867141724
2560,1467.7116887569427
2561,1468.3436908721924
2562,1468.950692653656
2563,1469.540694475174
2564,1470.1476964950562
2565,1470.7516984939575
2566,1471.3447003364563
2567,1471.926702260971
2568,1472.4967041015625
2569,1473.0627057552338
2570,1473.6307077407837
2571,1474.2037093639374
2572,1474.7837114334106
2573,1475.367713212967
2574,1475.970715045929
2575,1476.5927171707153
2576,1477.2237191200256
2577,1477.8607211112976
2578,1478.4817230701447
2579,1479.09672498703
2580,1479.7167270183563
2581,1480.3297290802002
2582,1480.9237308502197
2583,1481.4977328777313
2584,1482.0557346343994
2585,1482.6117362976074
2586,1483.165738105774
2587,1483.7267398834229
2588,1484.302741765976
2589,1484.892743587494
2590,1485.5207455158234
2591,1486.168747663498
2592,1486.8137497901917
2593,1487.4687519073486
2594,1488.1387538909912
2595,1488.8087561130524
2596,1489.4477581977844
2597,1490.0647602081299
2598,1490.6767621040344
2599,1491.2677640914917
2600,1491.8437657356262
2601,1492.4087677001953
2602,1492.968769311905
2603,1493.5397713184357
2604,1494.1297731399536
2605,1494.7387750148773
2606,1495.3517770767212
2607,1495.9697790145874
2608,1496.5857808589935
2609,1497.204782962799
2610,1497.8257849216461
2611,1498.4377868175507
2612,1499.0347888469696
2613,1499.6247906684875
2614,1500.210792541504
2615,1500.7937943935394
2616,1501.378796339035
2617,1501.9487981796265
2618,1502.515799999237
2619,1503.0888018608093
2620,1503.6698036193848
2621,1504.2618055343628
2622,1504.8468074798584
2623,1505.4308092594147
2624,1506.0198111534119
2625,1506.608813047409
2626,1507.193814754486
2627,1507.7738168239594
2628,1508.3508186340332
2629,1508.930820465088
2630,1509.5088222026825
2631,1510.080824136734
2632,1510.6458258628845
2633,1511.2058277130127
2634,1511.7688295841217
2635,1512.3318312168121
2636,1512.899833202362
2637,1513.466834783554
2638,1514.0248367786407
2639,1514.5878384113312
2640,1515.158840417862
2641,1515.7388422489166
2642,1516.3148438930511
2643,1516.8798458576202
2644,1517.4378476142883
2645,1517.9948494434357
2646,1518.5568511486053
2647,1519.1168529987335
2648,1519.6668546199799
2649,1520.210856437683
2650,1520.755858182907
2651,1521.3088600635529
2652,1521.866861820221
2653,1522.4208633899689
2654,1522.9668653011322
2655,1523.5118670463562
2656,1524.0658688545227
2657,1524.6288704872131
2658,1525.2038724422455
2659,1525.7798743247986
2660,1526.3458759784698
2661,1526.903877735138
2662,1527.4608795642853
2663,1528.0188813209534
2664,1528.57488322258
2665,1529.1178848743439
2666,1529.6568865776062
2667,1530.2008883953094
2668,1530.7568900585175
2669,1531.3078918457031
2670,1531.8588936328888
2671,1532.4128954410553
2672,1532.976897239685
2673,1533.5498991012573
2674,1534.124900817871
2675,1534.6919026374817
2676,1535.2459044456482
2677,1535.7849061489105
2678,1536.322907924652
2679,1536.865909576416
2680,1537.4079113006592
2681,1537.9529130458832
2682,1538.502914905548
2683,1539.0569167137146
2684,1539.6169183254242
2685,1540.158920288086
2686,1540.685921907425
2687,1541.2109234333038
2688,1541.736925125122
2689,1542.2769269943237
2690,1542.8289287090302
2691,1543.3889305591583
2692,1543.9589323997498
2693,1544.5519342422485
2694,1545.1549360752106
2695,1545.7579381465912
2696,1546.3479399681091
2697,1546.9329419136047
2698,1547.5029435157776
2699,1548.074945449829
2700,1548.6329472064972
2701,1549.1819489002228
2702,1549.7299506664276
2703,1550.2799525260925
2704,1550.8309543132782
2705,1551.3739559650421
2706,1551.9159576892853
2707,1552.4739594459534
2708,1553.0519614219666
2709,1553.6429631710052
2710,1554.2419650554657
2711,1554.837967157364
2712,1555.4309689998627
2713,1556.0259709358215
2714,1556.624972820282
2715,1557.2159745693207
2716,1557.7939765453339
2717,1558.3599781990051
2718,1558.9269800186157
2719,1559.4949820041656
2720,1560.0669836997986
2721,1560.6339855194092
2722,1561.194987297058
2723,1561.755989074707
2724,1562.3199908733368
2725,1562.892992734909
2726,1563.4679946899414
2727,1564.0469965934753
2728,1564.6329984664917
2729,1565.2270002365112
2730,1565.8270020484924
2731,1566.4230041503906
2732,1567.0060060024261
2733,1567.5860078334808
2734,1568.1680097579956
2735,1568.754011631012
2736,1569.3320133686066
2737,1569.900015115738
2738,1570.4660170078278
2739,1571.0350189208984
2740,1571.600020647049
2741,1572.1620223522186
2742,1572.7220242023468
2743,1573.2900259494781
2744,1573.8770279884338
2745,1574.482029914856
2746,1575.090031862259
2747,1575.6970336437225
2748,1576.3110356330872
2749,1576.9360375404358
2750,1577.5680396556854
2751,1578.196041584015
2752,1578.8070435523987
2753,1579.380045413971
2754,1579.9600472450256
2755,1580.517049074173
2756,1581.0730509757996
2757,1581.6280527114868
2758,1582.2020545005798
2759,1582.7950563430786
2760,1583.4420583248138
2761,1584.1070606708527
2762,1584.765062570572
2763,1585.435064792633
2764,1586.1120669841766
2765,1586.7760691642761
2766,1587.4090712070465
2767,1588.0120730400085
2768,1588.640074968338
2769,1589.2460770606995
2770,1589.8430788516998
2771,1590.4290807247162
2772,1591.0080826282501
2773,1591.5890843868256
2774,1592.1660861968994
2775,1592.7500882148743
2776,1593.332090139389
2777,1593.9030919075012
2778,1594.480093717575
2779,1595.0660955905914
2780,1595.662097454071
2781,1596.2560994625092
2782,1596.844101190567
2783,1597.4371030330658
2784,1598.0341050624847
2785,1598.6351070404053
2786,1599.2291088104248
2787,1599.8141107559204
2788,1600.4021127223969
2789,1600.989114522934
2790,1601.5781164169312
2791,1602.1631183624268
2792,1602.7351200580597
2793,1603.3131220340729
2794,1603.89812374115
2795,1604.4971256256104
2796,1605.0981276035309
2797,1605.692129611969
2798,1606.277131319046
2799,1606.8601331710815
2800,1607.4391350746155
2801,1608.0171370506287
2802,1608.5931386947632
2803,1609.1661405563354
2804,1609.7421424388885
2805,1610.328144311905
2806,1610.931146144867
2807,1611.5491483211517
2808,1612.1761503219604
2809,1612.7941522598267
2810,1613.3991541862488
2811,1613.9961559772491
2812,1614.591157913208
2813,1615.1781597137451
2814,1615.7451615333557
2815,1616.3111634254456
2816,1616.8691651821136
2817,1617.4121670722961
2818,1617.9461686611176
2819,1618.482170343399
2820,1619.0191721916199
2821,1619.5471737384796
2822,1620.0761754512787
2823,1620.6141772270203
2824,1621.173178911209
2825,1621.7251806259155
2826,1622.2761824131012
2827,1622.829184293747
2828,1623.3841860294342
2829,1623.9291877746582
2830,1624.4691894054413
2831,1625.0141911506653
2832,1625.5591928958893
2833,1626.1001946926117
2834,1626.6321964263916
2835,1627.1621980667114
2836,1627.6931998729706
2837,1628.2282016277313
2838,1628.7692031860352
2839,1629.3112049102783
2840,1629.8572068214417
2841,1630.405208349228
2842,1630.9762103557587
2843,1631.5562121868134
2844,1632.1432139873505
2845,1632.7222158908844
2846,1633.3012177944183
2847,1633.8752195835114
2848,1634.4462213516235
2849,1635.0092232227325
2850,1635.5762250423431
2851,1636.1452267169952
2852,1636.7152285575867
2853,1637.285230398178
2854,1637.8522322177887
2855,1638.4292340278625
2856,1639.0002360343933
2857,1639.564237833023
2858,1640.1302394866943
2859,1640.7002413272858
2860,1641.2812433242798
2861,1641.865245103836
2862,1642.455246925354
2863,1643.0412487983704
2864,1643.6192507743835
2865,1644.1972525119781
2866,1644.7692544460297
2867,1645.3382561206818
2868,1645.8992578983307
2869,1646.451259613037
2870,1647.0072615146637
2871,1647.5602631568909
2872,1648.1142649650574
2873,1648.6672668457031
2874,1649.2192685604095
2875,1649.7722704410553
2876,1650.334272146225
2877,1650.8962738513947
2878,1651.451275587082
2879,1651.9972774982452
2880,1652.5422792434692
2881,1653.0892808437347
2882,1653.6272826194763
2883,1654.1632843017578
2884,1654.6932859420776
2885,1655.2252876758575
2886,1655.7582893371582
2887,1656.2942912578583
2888,1656.838292837143
2889,1657.3842947483063
2890,1657.9372963905334
2891,1658.4872982501984
2892,1659.0332999229431
2893,1659.5783016681671
2894,1660.1253035068512
2895,1660.6753051280975
2896,1661.2233068943024
2897,1661.7683086395264
2898,1662.3053104877472
2899,1662.8393120765686
2900,1663.37531375885
2901,1663.912315607071
2902,1664.4443171024323
2903,1664.9733188152313
2904,1665.5033206939697
2905,1666.0363223552704
2906,1666.5733239650726
2907,1667.1073257923126
2908,1667.6313273906708
2909,1668.159329175949
2910,1668.6983308792114
2911,1669.247332572937
2912,1669.7913343906403
2913,1670.335335969925
2914,1670.8833377361298
2915,1671.4373395442963
2916,1671.990341424942
2917,1672.5383429527283
2918,1673.0763447284698
2919,1673.6143465042114
2920,1674.1453483104706
2921,1674.6693499088287
2922,1675.193351507187
2923,1675.7193531990051
2924,1676.2573549747467
2925,1676.8033566474915
2926,1677.3553583621979
2927,1677.9253602027893
2928,1678.5193622112274
2929,1679.1303641796112
2930,1679.7323660850525
2931,1680.349368095398
2932,1680.965369939804
2933,1681.5813720226288
2934,1682.1743738651276
2935,1682.755375623703
2936,1683.3323774337769
2937,1683.9073793888092
2938,1684.4743812084198
2939,1685.045382976532
2940,1685.6053848266602
2941,1686.164386510849
2942,1686.7213883399963
2943,1687.2783901691437
2944,1687.83039188385
2945,1688.373393535614
2946,1688.9223954677582
2947,1689.4643971920013
2948,1690.0043988227844
2949,1690.5304005146027
2950,1691.0594022274017
2951,1691.614403963089
2952,1692.1714057922363
2953,1692.7294075489044
2954,1693.291409254074
2955,1693.8504111766815
2956,1694.4104130268097
2957,1694.962414741516
2958,1695.5014164447784
2959,1696.0414180755615
2960,1696.595419883728
2961,1697.1784217357635
2962,1697.826423883438
2963,1698.513426065445
2964,1699.2004282474518
2965,1699.8624303340912
2966,1700.4934322834015
2967,1701.0974342823029
2968,1701.668436050415
2969,1702.2204377651215
2970,1702.7624397277832
2971,1703.292441368103
2972,1703.824443101883
2973,1704.3574447631836
2974,1704.9004464149475
2975,1705.449448108673
2976,1706.0034499168396
2977,1706.5674517154694
2978,1707.1404535770416
2979,1707.715455532074
2980,1708.2954573631287
2981,1708.8844592571259
2982,1709.4764611721039
2983,1710.0734629631042
2984,1710.666464805603
2985,1711.2544667720795
2986,1711.8424685001373
2987,1712.424470424652
2988,1713.003472328186
2989,1713.58047413826
2990,1714.1474759578705
2991,1714.703477859497
2992,1715.264479637146
2993,1715.8344814777374
2994,1716.4144833087921
2995,1717.0284852981567
2996,1717.6724872589111
2997,1718.3184893131256
2998,1718.9604914188385
2999,1719.6094934940338
3000,1720.2524955272675
3001,1720.8844974040985
3002,1721.485499382019
3003,1722.0705013275146
3004,1722.6365032196045
3005,1723.1895048618317
3006,1723.7345066070557
3007,1724.2705082893372
3008,1724.8085100650787
3009,1725.3605117797852
3010,1725.9365136623383
3011,1726.5105154514313
3012,1727.0945172309875
3013,1727.6885192394257
3014,1728.287521123886
3015,1728.8895230293274
3016,1729.4895250797272
3017,1730.0685267448425
3018,1730.6265287399292
3019,1731.167530298233
3020,1731.7075321674347
3021,1732.241533756256
3022,1732.78453540802
3023,1733.3305373191833
3024,1733.8855390548706
3025,1734.4625408649445
3026,1735.0545427799225
3027,1735.6785447597504
3028,1736.3275468349457
3029,1736.994549036026
3030,1737.6515510082245
3031,1738.3065531253815
3032,1738.9435551166534
3033,1739.5515570640564
3034,1740.154559135437
3035,1740.7525608539581
3036,1741.3455629348755
3037,1741.9435648918152
3038,1742.5275666713715
3039,1743.1015684604645
3040,1743.6835703849792
3041,1744.276572227478
3042,1744.866574048996
3043,1745.4815759658813
3044,1746.1065781116486
3045,1746.7405800819397
3046,1747.3825821876526
3047,1748.0165841579437
3048,1748.6515862941742
3049,1749.286588191986
3050,1749.9065902233124
3051,1750.5095920562744
3052,1751.1065940856934
3053,1751.702595949173
3054,1752.28959774971
3055,1752.868599653244
3056,1753.4436016082764
3057,1754.01660323143
3058,1754.5986051559448
3059,1755.1726069450378
3060,1755.7516088485718
3061,1756.3376107215881
3062,1756.9426126480103
3063,1757.57461476326
3064,1758.1936166286469
3065,1758.8196187019348
3066,1759.4316205978394
3067,1760.0266225337982
3068,1760.6126244068146
3069,1761.1786262989044
3070,1761.7446279525757
3071,1762.2966299057007
3072,1762.844631433487
3073,1763.3956332206726
3074,1763.9426350593567
3075,1764.4896368980408
3076,1765.0406384468079
3077,1765.5946402549744
3078,1766.1356420516968
3079,1766.6706438064575
3080,1767.2026455402374
3081,1767.7396471500397
3082,1768.2906489372253
3083,1768.846650838852
3084,1769.40265250206
3085,1769.9676542282104
3086,1770.5356562137604
3087,1771.1166579723358
3088,1771.6996598243713
3089,1772.2726616859436
3090,1772.8386635780334
3091,1773.4006652832031
3092,1773.9586670398712
3093,1774.5036687850952
3094,1775.0416705608368
3095,1775.5746722221375
3096,1776.1036739349365
3097,1776.6206755638123
3098,1777.1316771507263
3099,1777.635678768158
3100,1778.133680343628
3101,1778.6266820430756
3102,1779.1186835765839
3103,1779.6096851825714
3104,1780.0986866950989
3105,1780.5896883010864
3106,1781.0846898555756
3107,1781.5806913375854
3108,1782.0796930789948
3109,1782.5836946964264
3110,1783.085696220398
3111,1783.5936977863312
3112,1784.096699476242
3113,1784.5987010002136
3114,1785.0987026691437
3115,1785.595704317093
3116,1786.090705871582
3117,1786.5787074565887
3118,1787.0637090206146
3119,1787.5457105636597
3120,1788.0267119407654
3121,1788.499713420868
3122,1788.9697151184082
3123,1789.43971657753
3124,1789.9017179012299
3125,1790.3607194423676
3126,1790.8197209835052
3127,1791.2777223587036
3128,1791.7337238788605
3129,1792.1857252120972
3130,1792.6407268047333
3131,1793.0897281169891
3132,1793.5377295017242
3133,1793.9847309589386
3134,1794.4297325611115
3135,1794.871733903885
3136,1795.3117351531982
3137,1795.7447366714478
3138,1796.1769881248474
3139,1796.6092393398285
3140,1797.0414907932281
3141,1797.4737422466278
3142,1797.9017436504364
3143,1798.3257448673248
3144,1798.7497463226318
3145,1799.1727476119995
3146,1799.5917489528656
3147,1800.0127503871918
3148,1800.4327516555786
3149,1800.850753068924
3150,1801.26975440979
3151,1801.6857557296753
3152,1802.0977568626404
3153,1802.5087583065033
3154,1802.9197595119476
3155,1803.3287608623505
3156,1803.7367622852325
3157,1804.1467635631561
3158,1804.5587646961212
3159,1804.9747660160065
3160,1805.3907675743103
3161,1805.8077688217163
3162,1806.232770204544
3163,1806.6647715568542
3164,1807.100772857666
3165,1807.5367743968964
3166,1807.9737756252289
3167,1808.4147770404816
3168,1808.8577785491943
3169,1809.3027799129486
3170,1809.7467813491821
3171,1810.1907827854156
3172,1810.63778424263
3173,1811.083785533905
3174,1811.5277869701385
3175,1811.971788406372
3176,1812.4127898216248
3177,1812.851791381836
3178,1813.2887926101685
3179,1813.7247941493988
3180,1814.1597955226898
3181,1814.59379696846
3182,1815.028798341751
3183,1815.4647996425629
3184,1815.901801109314
3185,1816.3408024311066
3186,1816.7798037528992
3187,1817.2188053131104
3188,1817.6568067073822
3189,1818.094808101654
3190,1818.5338094234467
3191,1818.9768109321594
3192,1819.4168121814728
3193,1819.8578135967255
3194,1820.2968151569366
3195,1820.73881649971
3196,1821.1808178424835
3197,1821.6238193511963
3198,1822.0678207874298
3199,1822.5148222446442
3200,1822.9648234844208
3201,1823.416825056076
3202,1823.8688263893127
3203,1824.322828054428
3204,1824.7798295021057
3205,1825.2398309707642
3206,1825.6948323249817
3207,1826.1488337516785
3208,1826.6018352508545
3209,1827.0538365840912
3210,1827.5048379898071
3211,1827.9548394680023
3212,1828.4038410186768
3213,1828.8558423519135
3214,1829.3138439655304
3215,1829.7788453102112
3216,1830.2488467693329
3217,1830.7208483219147
3218,1831.1928498744965
3219,1831.6648514270782
3220,1832.1348528862
3221,1832.59885430336
3222,1833.0618557929993
3223,1833.522857427597
3224,1833.9838588237762
3225,1834.442860364914
3226,1834.8998618125916
3227,1835.3538632392883
3228,1835.805864572525
3229,1836.2608661651611
3230,1836.7128674983978
3231,1837.164869070053
3232,1837.615870475769
3233,1838.0658719539642
3234,1838.5138733386993
3235,1838.9628746509552
3236,1839.4128761291504
3237,1839.8668775558472
3238,1840.3188791275024
3239,1840.768880367279
3240,1841.2198820114136
3241,1841.6678833961487
3242,1842.114884853363
3243,1842.560886144638
3244,1843.0088875293732
3245,1843.4608891010284
3246,1843.9148905277252
3247,1844.3698918819427
3248,1844.8268933296204
3249,1845.2818949222565
3250,1845.7428963184357
3251,1846.2018978595734
3252,1846.6628992557526
3253,1847.127900838852
3254,1847.5889022350311
3255,1848.0509037971497
3256,1848.5149052143097
3257,1848.9789066314697
3258,1849.4429082870483
3259,1849.9059097766876
3260,1850.365911245346
3261,1850.8239126205444
3262,1851.278913974762
3263,1851.733915567398
3264,1852.1859169006348
3265,1852.6389183998108
3266,1853.0919198989868
3267,1853.5479214191437
3268,1854.0069227218628
3269,1854.4669241905212
3270,1854.9289257526398
3271,1855.3969271183014
3272,1855.8729286193848
3273,1856.3489303588867
3274,1856.8259317874908
3275,1857.304933309555
3276,1857.78493475914
3277,1858.2659363746643
3278,1858.7469379901886
3279,1859.2239394187927
3280,1859.7009408473969
3281,1860.179942369461
3282,1860.661943912506
3283,1861.148945569992
3284,1861.6319470405579
3285,1862.1169486045837
3286,1862.6049501895905
3287,1863.0929517745972
3288,1863.5819532871246
3289,1864.0679550170898
3290,1864.5549564361572
3291,1865.0389580726624
3292,1865.5179595947266
3293,1865.9929611682892
3294,1866.4639625549316
3295,1866.9349641799927
3296,1867.408965587616
3297,1867.8879671096802
3298,1868.3719687461853
3299,1868.8559701442719
3300,1869.3359718322754
3301,1869.816973209381
3302,1870.2949748039246
3303,1870.7739763259888
3304,1871.2469778060913
3305,1871.7179794311523
3306,1872.1889808177948
3307,1872.656982421875
3308,1873.125983953476
3309,1873.5949852466583
3310,1874.0579867362976
3311,1874.522988319397
3312,1874.9859898090363
3313,1875.4459912776947
3314,1875.903992652893
3315,1876.36199426651
3316,1876.8169956207275
3317,1877.2709970474243
3318,1877.7259986400604
3319,1878.1779999732971
3320,1878.6330013275146
3321,1879.08700299263
3322,1879.5410044193268
3323,1879.9930057525635
3324,1880.4450073242188
3325,1880.8980085849762
3326,1881.3510100841522
3327,1881.8060116767883
3328,1882.2610130310059
3329,1882.722014427185
3330,1883.1850159168243
3331,1883.6540174484253
3332,1884.126019001007
3333,1884.5980205535889
3334,1885.0730221271515
3335,1885.5530235767365
3336,1886.0360250473022
3337,1886.519026517868
3338,1887.0020282268524
3339,1887.4870297908783
3340,1887.9660313129425
3341,1888.4460327625275
3342,1888.9220342636108
3343,1889.3970358371735
3344,1889.868037223816
3345,1890.3400387763977
3346,1890.8110404014587
3347,1891.2780418395996
3348,1891.7460434436798
3349,1892.2130448818207
3350,1892.6820464134216
3351,1893.151047706604
3352,1893.6210494041443
3353,1894.0930507183075
3354,1894.5690524578094
3355,1895.0490539073944
3356,1895.5320553779602
3357,1896.0180568695068
3358,1896.5100586414337
3359,1897.0090601444244
3360,1897.5080616474152
3361,1898.0060632228851
3362,1898.5020649433136
3363,1898.991066455841
3364,1899.4770679473877
3365,1899.958069562912
3366,1900.4360711574554
3367,1900.9130725860596
3368,1901.3880741596222
3369,1901.8660757541656
3370,1902.3490772247314
3371,1902.840078830719
3372,1903.3320803642273
3373,1903.8290820121765
3374,1904.3280835151672
3375,1904.8360850811005
3376,1905.3520867824554
3377,1905.872088432312
3378,1906.388090133667
3379,1906.9000916481018
3380,1907.4090933799744
3381,1907.9100949764252
3382,1908.4030964374542
3383,1908.8940980434418
3384,1909.3870997428894
3385,1909.8791012763977
3386,1910.3651027679443
3387,1910.8461043834686
3388,1911.3261058330536
3389,1911.804107427597
3390,1912.2821090221405
3391,1912.7631103992462
3392,1913.248111963272
3393,1913.7341134548187
3394,1914.217115163803
3395,1914.6981165409088
3396,1915.1801180839539
3397,1915.6601197719574
3398,1916.1391212940216
3399,1916.6251227855682
3400,1917.113124370575
3401,1917.59512591362
3402,1918.077127456665
3403,1918.55912899971
3404,1919.039130449295
3405,1919.52113199234
3406,1920.0001335144043
3407,1920.4811351299286
3408,1920.9601366519928
3409,1921.439138174057
3410,1921.9221396446228
3411,1922.408141374588
3412,1922.8951427936554
3413,1923.3791444301605
3414,1923.866145849228
3415,1924.3581476211548
3416,1924.8561491966248
3417,1925.362150669098
3418,1925.8711524009705
3419,1926.375154018402
3420,1926.8721554279327
3421,1927.3661570549011
3422,1927.8591587543488
3423,1928.3501603603363
3424,1928.8371617794037
3425,1929.3251633644104
3426,1929.811164855957
3427,1930.3011665344238
3428,1930.796168088913
3429,1931.3011696338654
3430,1931.818171262741
3431,1932.339173078537
3432,1932.8621747493744
3433,1933.3851764202118
3434,1933.906177997589
3435,1934.4281797409058
3436,1934.9481813907623
3437,1935.4721829891205
3438,1935.9941847324371
3439,1936.5111863613129
3440,1937.022187948227
3441,1937.5321896076202
3442,1938.0361912250519
3443,1938.536192893982
3444,1939.031194448471
3445,1939.5241959095001
3446,1940.0161974430084
3447,1940.5081992149353
3448,1941.0042006969452
3449,1941.5042023658752
3450,1942.0112040042877
3451,1942.5272054672241
3452,1943.0492072105408
3453,1943.570208787918
3454,1944.0802104473114
3455,1944.5792121887207
3456,1945.082213640213
3457,1945.593215227127
3458,1946.1082170009613
3459,1946.6262185573578
3460,1947.1462202072144
3461,1947.6632220745087
3462,1948.1702234745026
3463,1948.6762251853943
3464,1949.1742267608643
3465,1949.6632282733917
3466,1950.1472299098969
3467,1950.637231349945
3468,1951.1352331638336
3469,1951.6432347297668
3470,1952.1662364006042
3471,1952.699238061905
3472,1953.2322397232056
3473,1953.7652413845062
3474,1954.2972431182861
3475,1954.8212447166443
3476,1955.3342463970184
3477,1955.8332481384277
3478,1956.3332495689392
3479,1956.8302512168884
3480,1957.3292527198792
3481,1957.8222544193268
3482,1958.312255859375
3483,1958.801257610321
3484,1959.2822589874268
3485,1959.7582604885101
3486,1960.232262134552
3487,1960.7022635936737
3488,1961.1712651252747
3489,1961.6392664909363
3490,1962.1092681884766
3491,1962.5812695026398
3492,1963.062271118164
3493,1963.54727268219
3494,1964.0412743091583
3495,1964.5382759571075
3496,1965.04327750206
3497,1965.5472791194916
3498,1966.0552806854248
3499,1966.5582823753357
3500,1967.0592839717865
3501,1967.5602855682373
3502,1968.0522871017456
3503,1968.541288614273
3504,1969.0272901058197
3505,1969.5142917633057
3506,1970.0012934207916
3507,1970.4852948188782
3508,1970.9672963619232
3509,1971.4452979564667
3510,1971.91929936409
3511,1972.3923008441925
3512,1972.8673024177551
3513,1973.341304063797
3514,1973.8203055858612
3515,1974.3063070774078
3516,1974.796308517456
3517,1975.2983102798462
3518,1975.8073117733002
3519,1976.315313577652
3520,1976.8203151226044
3521,1977.3253166675568
3522,1977.8293182849884
3523,1978.33331990242
3524,1978.8383214473724
3525,1979.3403232097626
3526,1979.8423247337341
3527,1980.3413262367249
3528,1980.8393280506134
3529,1981.3373296260834
3530,1981.836331129074
3531,1982.3353326320648
3532,1982.8283343315125
3533,1983.3163359165192
3534,1983.8043375015259
3535,1984.294338941574
3536,1984.7883405685425
3537,1985.2863421440125
3538,1985.793343782425
3539,1986.2983453273773
3540,1986.8103470802307
3541,1987.3343486785889
3542,1987.8693504333496
3543,1988.4093520641327
3544,1988.9463539123535
3545,1989.4813554286957
3546,1990.0103571414948
3547,1990.5283589363098
3548,1991.0313603878021
3549,1991.5253620147705
3550,1992.0123636722565
3551,1992.498365163803
3552,1992.9803667068481
3553,1993.4613683223724
3554,1993.9413697719574
3555,1994.4243712425232
3556,1994.909372806549
3557,1995.396374464035
3558,1995.889375925064
3559,1996.3883776664734
3560,1996.890379190445
3561,1997.4003808498383
3562,1997.9143824577332
3563,1998.4293842315674
3564,1998.9393856525421
3565,1999.444387435913
3566,1999.9463889598846
3567,2000.440390586853
3568,2000.9343922138214
3569,2001.425393819809
3570,2001.918395280838
3571,2002.411396741867
3572,2002.9083983898163
3573,2003.4063999652863
3574,2003.9054017066956
3575,2004.4074032306671
3576,2004.9114048480988
3577,2005.4184064865112
3578,2005.9334080219269
3579,2006.4434096813202
3580,2006.9524114131927
3581,2007.455412864685
3582,2007.9564144611359
3583,2008.4554162025452
3584,2008.9524178504944
3585,2009.4504194259644
3586,2009.9454209804535
3587,2010.4434225559235
3588,2010.945424079895
3589,2011.4544258117676
3590,2011.9684274196625
3591,2012.4784290790558
3592,2012.988430738449
3593,2013.4964323043823
3594,2014.0024337768555
3595,2014.506435394287
3596,2015.009437084198
3597,2015.5134387016296
3598,2016.0164403915405
3599,2016.5204420089722
3600,2017.021443605423
3601,2017.5184450149536
3602,2018.0104467868805
3603,2018.5014481544495
3604,2018.992449760437
3605,2019.4874513149261
3606,2019.988452911377
3607,2020.490454673767
3608,2020.986456155777
3609,2021.486457824707
3610,2021.986459493637
3611,2022.4814610481262
3612,2022.977462530136
3613,2023.4694640636444
3614,2023.960465669632
3615,2024.4534673690796
3616,2024.9494688510895
3617,2025.4484703540802
3618,2025.9434719085693
3619,2026.4344735145569
3620,2026.9254751205444
3621,2027.4104766845703
3622,2027.896478176117
3623,2028.378479719162
3624,2028.8614814281464
3625,2029.3434829711914
3626,2029.8214843273163
3627,2030.2994859218597
3628,2030.7724874019623
3629,2031.242488861084
3630,2031.7094905376434
3631,2032.1744918823242
3632,2032.6364934444427
3633,2033.0984947681427
3634,2033.5574963092804
3635,2034.0184977054596
3636,2034.483499288559
3637,2034.95250082016
3638,2035.4255023002625
3639,2035.9085037708282
3640,2036.3935053348541
3641,2036.87850689888
3642,2037.3675084114075
3643,2037.858510017395
3644,2038.3515117168427
3645,2038.843513250351
3646,2039.330514907837
3647,2039.8145163059235
3648,2040.2955179214478
3649,2040.7715194225311
3650,2041.2425208091736
3651,2041.7125225067139
3652,2042.1755239963531
3653,2042.6385252475739
3654,2043.0985267162323
3655,2043.5585281848907
3656,2044.0245296955109
3657,2044.5015313625336
3658,2044.995532989502
3659,2045.5145344734192
3660,2046.0545363426208
3661,2046.596538066864
3662,2047.1245396137238
3663,2047.7165415287018
3664,2048.2825434207916
3665,2048.818545103073
3666,2049.366546869278
3667,2049.9075486660004
3668,2050.448550224304
3669,2050.983551979065
3670,2051.50155377388
3671,2052.0115551948547
3672,2052.518556833267
3673,2053.019558429718
3674,2053.5155601501465
3675,2054.007561683655
3676,2054.4965631961823
3677,2054.981564760208
3678,2055.461566209793
3679,2055.943567752838
3680,2056.4215693473816
3681,2056.8985710144043
3682,2057.3775725364685
3683,2057.8575739860535
3684,2058.3495755195618
3685,2058.8475770950317
3686,2059.357578754425
3687,2059.8755803108215
3688,2060.4105820655823
3689,2060.947583913803
3690,2061.477585554123
3691,2062.0115871429443
3692,2062.5435888767242
3693,2063.0685906410217
3694,2063.576592206955
3695,2064.0785937309265
3696,2064.58859539032
3697,2065.1055970191956
3698,2065.6255989074707
3699,2066.146600484848
3700,2066.6666021347046
3701,2067.1856038570404
3702,2067.7066054344177
3703,2068.229607105255
3704,2068.751608848572
3705,2069.274610519409
3706,2069.7976121902466
3707,2070.3196136951447
3708,2070.8436155319214
3709,2071.3706171512604
3710,2071.8986189365387
3711,2072.433620452881
3712,2072.9656221866608
3713,2073.491623878479
3714,2074.0066256523132
3715,2074.5166273117065
3716,2075.0176289081573
3717,2075.518630504608
3718,2076.015631914139
3719,2076.5116336345673
3720,2077.0066351890564
3721,2077.5066368579865
3722,2078.006638288498
3723,2078.514639854431
3724,2079.033641576767
3725,2079.564643383026
3726,2080.1186451911926
3727,2080.678646802902
3728,2081.226648569107
3729,2081.774650335312
3730,2082.324652194977
3731,2082.874653816223
3732,2083.422655582428
3733,2083.967657327652
3734,2084.5066590309143
3735,2085.0346608161926
3736,2085.55566239357
3737,2086.0776641368866
3738,2086.600665807724
3739,2087.1216673851013
3740,2087.638669013977
3741,2088.1506707668304
3742,2088.667672395706
3743,2089.184674024582
3744,2089.699675798416
3745,2090.216677427292
3746,2090.7296788692474
3747,2091.2396805286407
3748,2091.7456822395325
3749,2092.247683763504
3750,2092.7446854114532
3751,2093.242686986923
3752,2093.740688562393
3753,2094.2376902103424
3754,2094.7296917438507
3755,2095.225693464279
3756,2095.716694831848
3757,2096.2076964378357
3758,2096.6986980438232
3759,2097.191699743271
3760,2097.6857011318207
3761,2098.1767027378082
3762,2098.667704343796
3763,2099.161705970764
3764,2099.6557075977325
3765,2100.1497089862823
3766,2100.639710664749
3767,2101.1297121047974
3768,2101.6187138557434
3769,2102.10671544075
3770,2102.589716911316
3771,2103.071718454361
3772,2103.5497200489044
3773,2104.025721549988
3774,2104.500722885132
3775,2104.976724386215
3776,2105.453726053238
3777,2105.933727502823
3778,2106.4187290668488
3779,2106.9087307453156
3780,2107.400732278824
3781,2107.9027338027954
3782,2108.409735441208
3783,2108.9187371730804
3784,2109.4267387390137
3785,2109.934740304947
3786,2110.44474196434
3787,2110.9567437171936
3788,2111.4667451381683
3789,2111.975746870041
3790,2112.4827485084534
3791,2112.9877500534058
3792,2113.499751806259
3793,2114.0257534980774
3794,2114.561755180359
3795,2115.1157569885254
3796,2115.6897587776184
3797,2116.2927606105804
3798,2116.92476272583
3799,2117.5707647800446
3800,2118.2047667503357
3801,2118.822768688202
3802,2119.409770488739
3803,2119.9947724342346
3804,2120.5737743377686
3805,2121.1457760334015
3806,2121.703778028488
3807,2122.2557797431946
3808,2122.805781364441
3809,2123.352783203125
3810,2123.9037849903107
3811,2124.457786798477
3812,2125.0267884731293
3813,2125.6017904281616
3814,2126.1977922916412
3815,2126.8007941246033
3816,2127.4047961235046
3817,2127.995798110962
3818,2128.584800004959
3819,2129.1678018569946
3820,2129.75080370903
3821,2130.330805540085
3822,2130.9088072776794
3823,2131.4868092536926
3824,2132.0608110427856
3825,2132.631812810898
3826,2133.2018146514893
3827,2133.7668163776398
3828,2134.3278181552887
3829,2134.8968200683594
3830,2135.4708218574524
3831,2136.052823781967
3832,2136.6378257274628
3833,2137.232827425003
3834,2137.827829360962
3835,2138.42383146286
3836,2139.010833263397
3837,2139.589835166931
3838,2140.153836965561
3839,2140.7108385562897
3840,2141.2558403015137
3841,2141.7928421497345
3842,2142.323843717575
3843,2142.8568456172943
3844,2143.397847175598
3845,2143.9568490982056
3846,2144.542850971222
3847,2145.150852918625
3848,2145.771854877472
3849,2146.403856754303
3850,2147.047858953476
3851,2147.6808609962463
3852,2148.308862924576
3853,2148.9078648090363
3854,2149.5018668174744
3855,2150.0868685245514
3856,2150.666870355606
3857,2151.2408723831177
3858,2151.808874130249
3859,2152.368875980377
3860,2152.9208776950836
3861,2153.4718794822693
3862,2154.031881093979
3863,2154.607882976532
3864,2155.1768848896027
3865,2155.7328865528107
3866,2156.292888402939
3867,2156.849890232086
3868,2157.3988919258118
3869,2157.945893764496
3870,2158.4938955307007
3871,2159.0448973178864
3872,2159.6008989810944
3873,2160.156900882721
3874,2160.7139024734497
3875,2161.2639043331146
3876,2161.805906057358
3877,2162.3389077186584
3878,2162.871909379959
3879,2163.4049110412598
3880,2163.9479129314423
3881,2164.5079147815704
3882,2165.075916528702
3883,2165.6669182777405
3884,2166.280920267105
3885,2166.9059224128723
3886,2167.5429244041443
3887,2168.183926343918
3888,2168.7999284267426
3889,2169.3919303417206
3890,2169.9899322986603
3891,2170.5719339847565
3892,2171.1489357948303
3893,2171.719937801361
3894,2172.2819395065308
3895,2172.849941253662
3896,2173.413943052292
3897,2173.9829449653625
3898,2174.5459468364716
3899,2175.110948562622
3900,2175.6939504146576
3901,2176.3039524555206
3902,2176.945954322815
3903,2177.5919563770294
3904,2178.225958585739
3905,2178.8709604740143
3906,2179.5089626312256
3907,2180.1359646320343
3908,2180.7519664764404
3909,2181.3469684123993
3910,2181.930970430374
3911,2182.4969720840454
3912,2183.0519738197327
3913,2183.6069757938385
3914,2184.166977405548
3915,2184.7419793605804
3916,2185.3149812221527
3917,2185.8999829292297
3918,2186.5079848766327
3919,2187.125986814499
3920,2187.734988927841
3921,2188.3319907188416
3922,2188.919992685318
3923,2189.4979944229126
3924,2190.0619962215424
3925,2190.616998195648
3926,2191.154999732971
3927,2191.685001373291
3928,2192.2090032100677
3929,2192.7270047664642
3930,2193.2420065402985
3931,2193.757008075714
3932,2194.27400970459
3933,2194.784011363983
3934,2195.2970130443573
3935,2195.822014808655
3936,2196.3690164089203
3937,2196.938018321991
3938,2197.5160200595856
3939,2198.091022014618
3940,2198.670023918152
3941,2199.2630257606506
3942,2199.8540275096893
3943,2200.439029455185
3944,2201.023031234741
3945,2201.6010332107544
3946,2202.1740350723267
3947,2202.7380368709564
3948,2203.298038482666
3949,2203.8440403938293
3950,2204.3830420970917
3951,2204.9270436763763
3952,2205.480045557022
3953,2206.0580472946167
3954,2206.6730494499207
3955,2207.325051546097
3956,2207.9960536956787
3957,2208.659055709839
3958,2209.29705786705
3959,2209.930059671402
3960,2210.5480618476868
3961,2211.153063774109
3962,2211.7490656375885
3963,2212.3310675621033
3964,2212.9020693302155
3965,2213.4710710048676
3966,2214.038072824478
3967,2214.6140747070312
3968,2215.193076610565
3969,2215.7810785770416
3970,2216.3870804309845
3971,2217.001082420349
3972,2217.5980842113495
3973,2218.178086042404
3974,2218.7560880184174
3975,2219.334089756012
3976,2219.910091638565
3977,2220.4780933856964
3978,2221.0540952682495
3979,2221.627097129822
3980,2222.2070989608765
3981,2222.7891008853912
3982,2223.374102830887
3983,2223.960104703903
3984,2224.538106441498
3985,2225.106108188629
3986,2225.6651101112366
3987,2226.2161118984222
3988,2226.7611136436462
3989,2227.294115304947
3990,2227.8251168727875
3991,2228.363118648529
3992,2228.926120519638
3993,2229.530122280121
3994,2230.1641244888306
3995,2230.800126552582
3996,2231.414128303528
3997,2232.013130426407
3998,2232.6061322689056
3999,2233.179134130478
4000,2233.734135866165
4001,2234.2751376628876
4002,2234.8051393032074
4003,2235.323140859604
4004,2235.837142467499
4005,2236.3541440963745
4006,2236.8861458301544
4007,2237.427147626877
4008,2237.974149465561
4009,2238.5441510677338
4010,2239.1311531066895
4011,2239.73215508461
4012,2240.3441569805145
4013,2240.9331588745117
4014,2241.5121607780457
4015,2242.0691623687744
4016,2242.6171641349792
4017,2243.15216588974
4018,2243.679167509079
4019,2244.200169324875
4020,2244.7231709957123
4021,2245.2501726150513
4022,2245.7771742343903
4023,2246.317176103592
4024,2246.87117767334
4025,2247.4271795749664
4026,2247.9671812057495
4027,2248.5281829833984
4028,2249.1401851177216
4029,2249.7851870059967
4030,2250.438189268112
4031,2251.0741913318634
4032,2251.697193145752
4033,2252.310195207596
4034,2252.907196998596
4035,2253.491199016571
4036,2254.060200691223
4037,2254.621202468872
4038,2255.174204349518
4039,2255.7282061576843
4040,2256.2862079143524
4041,2256.866209745407
4042,2257.4542117118835
4043,2258.0522134304047
4044,2258.661215543747
4045,2259.278217315674
4046,2259.8892192840576
4047,2260.5012214183807
4048,2261.103223323822
4049,2261.698225259781
4050,2262.2742269039154
4051,2262.8372287750244
4052,2263.3952305316925
4053,2263.949232339859
4054,2264.5042340755463
4055,2265.052235841751
4056,2265.600237607956
4057,2266.155239343643
4058,2266.7252411842346
4059,2267.303243160248
4060,2267.885244846344
4061,2268.474246740341
4062,2269.07124876976
4063,2269.6682505607605
4064,2270.256252527237
4065,2270.8342542648315
4066,2271.4082560539246
4067,2271.975257873535
4068,2272.5372598171234
4069,2273.0982615947723
4070,2273.6532633304596
4071,2274.2002651691437
4072,2274.7402667999268
4073,2275.2832684516907
4074,2275.8282701969147
4075,2276.385272026062
4076,2276.94527387619
4077,2277.5032756328583
4078,2278.069277524948
4079,2278.633279323578
4080,2279.2032811641693
4081,2279.7692828178406
4082,2280.3322846889496
4083,2280.8792865276337
4084,2281.42928814888
4085,2281.972289800644
4086,2282.5132915973663
4087,2283.0472934246063
4088,2283.5732951164246
4089,2284.1012966632843
4090,2284.628298521042
4091,2285.1572999954224
4092,2285.6873018741608
4093,2286.221303462982
4094,2286.7633051872253
4095,2287.317306995392
4096,2287.8793087005615
4097,2288.454310655594
4098,2289.028312444687
4099,2289.60431432724
4100,2290.1853160858154
4101,2290.755317926407
4102,2291.3113198280334
4103,2291.850321531296
4104,2292.3803231716156
4105,2292.9073247909546
4106,2293.430326461792
4107,2293.948328256607
4108,2294.4633297920227
4109,2294.9793314933777
4110,2295.5013332366943
4111,2296.0243349075317
4112,2296.5413365364075
4113,2297.0713381767273
4114,2297.6053397655487
4115,2298.154341697693
4116,2298.70934343338
4117,2299.2793452739716
4118,2299.847347021103
4119,2300.4043488502502
4120,2300.953350543976
4121,2301.50035238266
4122,2302.0393540859222
4123,2302.569355726242
4124,2303.0923573970795
4125,2303.613358974457
4126,2304.1323606967926
4127,2304.6483623981476
4128,2305.1673641204834
4129,2305.690365791321
4130,2306.2183673381805
4131,2306.7633690834045
4132,2307.3213708400726
4133,2307.9023728370667
4134,2308.4923746585846
4135,2309.07337641716
4136,2309.6483783721924
4137,2310.2203800678253
4138,2310.789381980896
4139,2311.355383872986
4140,2311.9143855571747
4141,2312.4673874378204
4142,2313.0183889865875
4143,2313.5633907318115
4144,2314.106392621994
4145,2314.6413943767548
4146,2315.178395986557
4147,2315.7143976688385
4148,2316.2463994026184
4149,2316.7824010849
4150,2317.313402891159
4151,2317.843404531479
4152,2318.3794062137604
4153,2318.9294080734253
4154,2319.4984097480774
4155,2320.0714116096497
4156,2320.6404135227203
4157,2321.2114152908325
4158,2321.791417121887
4159,2322.3624188899994
4160,2322.9274208545685
4161,2323.4784224033356
4162,2324.0174243450165
4163,2324.553426027298
4164,2325.0874276161194
4165,2325.62442946434
4166,2326.167431116104
4167,2326.710432767868
4168,2327.244434595108
4169,2327.786436319351
4170,2328.3364379405975
4171,2328.9024398326874
4172,2329.472441673279
4173,2330.0334434509277
4174,2330.585445165634
4175,2331.1284470558167
4176,2331.6724486351013
4177,2332.2224504947662
4178,2332.7744522094727
4179,2333.3234539031982
4180,2333.8674557209015
4181,2334.405457496643
4182,2334.935459136963
4183,2335.4574608802795
4184,2335.973462343216
4185,2336.4794640541077
4186,2336.98446559906
4187,2337.4994673728943
4188,2338.032469034195
4189,2338.588470697403
4190,2339.1754727363586
4191,2339.7684745788574
4192,2340.378476381302
4193,2341.0074784755707
4194,2341.6314804553986
4195,2342.253482580185
4196,2342.870484352112
4197,2343.46248626709
4198,2344.0464882850647
4199,2344.6134901046753
4200,2345.174491882324
4201,2345.7324936389923
4202,2346.291495323181
4203,2346.8454971313477
4204,2347.404499053955
4205,2347.978500843048
4206,2348.5675027370453
4207,2349.1725046634674
4208,2349.7725064754486
4209,2350.3725085258484
4210,2350.971510410309
4211,2351.5695123672485
4212,2352.1705141067505
4213,2352.758516073227
4214,2353.329517841339
4215,2353.895519733429
4216,2354.455521583557
4217,2355.019523382187
4218,2355.5825250148773
4219,2356.146526813507
4220,2356.704528570175
4221,2357.259530544281
4222,2357.8165321350098
4223,2358.376533985138
4224,2358.9415357112885
4225,2359.5035376548767
4226,2360.0655393600464
4227,2360.6275413036346
4228,2361.1895430088043
4229,2361.7495448589325
4230,2362.301546573639
4231,2362.846548318863
4232,2363.3855500221252
4233,2363.9245517253876
4234,2364.458553314209
4235,2364.989555120468
4236,2365.524556875229
4237,2366.067558526993
4238,2366.6165602207184
4239,2367.1735620498657
4240,2367.7395639419556
4241,2368.3195657730103
4242,2368.9185676574707
4243,2369.520569562912
4244,2370.1115715503693
4245,2370.694573402405
4246,2371.27557516098
4247,2371.852576971054
4248,2372.4255788326263
4249,2372.9825806617737
4250,2373.5275824069977
4251,2374.071584224701
4252,2374.613585948944
4253,2375.167587518692
4254,2375.7205893993378
4255,2376.276591062546
4256,2376.8275928497314
4257,2377.383594751358
4258,2377.95459651947
4259,2378.5385982990265
4260,2379.124600172043
4261,2379.704602241516
4262,2380.28160405159
4263,2380.8616058826447
4264,2381.4416077136993
4265,2382.0106093883514
4266,2382.5736112594604
4267,2383.1336131095886
4268,2383.687614917755
4269,2384.2426166534424
4270,2384.790618419647
4271,2385.335620164871
4272,2385.879621744156
4273,2386.42662358284
4274,2386.976625442505
4275,2387.5366270542145
4276,2388.0896289348602
4277,2388.6476306915283
4278,2389.2056324481964
4279,2389.770634174347
4280,2390.333636045456
4281,2390.8876378536224
4282,2391.440639734268
4283,2391.996641397476
4284,2392.545643091202
4285,2393.097644805908
4286,2393.6436467170715
4287,2394.1846482753754
4288,2394.724650144577
4289,2395.2686519622803
4290,2395.8206536769867
4291,2396.374655485153
4292,2396.9226570129395
4293,2397.4716589450836
4294,2398.02366065979
4295,2398.579662322998
4296,2399.129664182663
4297,2399.6786658763885
4298,2400.2266676425934
4299,2400.774669408798
4300,2401.323671102524
4301,2401.8766729831696
4302,2402.428674697876
4303,2402.9816765785217
4304,2403.5286781787872
4305,2404.078680038452
4306,2404.6276817321777
4307,2405.1786835193634
4308,2405.73068523407
4309,2406.2836871147156
4310,2406.8416888713837
4311,2407.39569067955
4312,2407.939692258835
4313,2408.481693983078
4314,2409.023695707321
4315,2409.557697534561
4316,2410.085699081421
4317,2410.611700773239
4318,2411.133702516556
4319,2411.6537041664124
4320,2412.1747057437897
4321,2412.6987075805664
4322,2413.232709169388
4323,2413.779711008072
4324,2414.3387126922607
4325,2414.9077146053314
4326,2415.4807164669037
4327,2416.0597183704376
4328,2416.6397202014923
4329,2417.2207219600677
4330,2417.7997238636017
4331,2418.367725610733
4332,2418.928727388382
4333,2419.4797291755676
4334,2420.021730899811
4335,2420.560732603073
4336,2421.089734315872
4337,2421.6157360076904
4338,2422.1457376480103
4339,2422.6907393932343
4340,2423.2487411499023
4341,2423.8297431468964
4342,2424.425745010376
4343,2425.0397469997406
4344,2425.668748855591
4345,2426.301750898361
4346,2426.9297530651093
4347,2427.536754846573
4348,2428.1237568855286
4349,2428.696758747101
4350,2429.2587604522705
4351,2429.8217623233795
4352,2430.371763944626
4353,2430.9117658138275
4354,2431.447767496109
4355,2431.979769229889
4356,2432.5157709121704
4357,2433.059772491455
4358,2433.6057744026184
4359,2434.1647760868073
4360,2434.7347779273987
4361,2435.30677986145
4362,2435.8757815361023
4363,2436.4387834072113
4364,2437.0017852783203
4365,2437.558786869049
4366,2438.1127886772156
4367,2438.6577904224396
4368,2439.198792219162
4369,2439.7377939224243
4370,2440.2777955532074
4371,2440.817797422409
4372,2441.35279917717
4373,2441.8838007450104
4374,2442.4118025302887
4375,2442.94580411911
4376,2443.47980594635
4377,2444.0158076286316
4378,2444.5408091545105
4379,2445.070811033249
4380,2445.6048126220703
4381,2446.13681435585
4382,2446.669816017151
4383,2447.1998176574707
4384,2447.7348194122314
4385,2448.2798211574554
4386,2448.8298230171204
4387,2449.376824617386
4388,2449.9148263931274
4389,2450.447828054428
4390,2450.977829694748
4391,2451.503831386566
4392,2452.0338332653046
4393,2452.5608348846436
4394,2453.0798366069794
4395,2453.594838142395
4396,2454.11083984375
4397,2454.6338415145874
4398,2455.168843269348
4399,2455.709844827652
4400,2456.2528467178345
4401,2456.7978484630585
4402,2457.3398501873016
4403,2457.8848519325256
4404,2458.439853668213
4405,2458.9938554763794
4406,2459.5468571186066
4407,2460.0958590507507
4408,2460.635860681534
4409,2461.1668622493744
4410,2461.6948640346527
4411,2462.21786570549
4412,2462.7408673763275
4413,2463.2668690681458
4414,2463.7968707084656
4415,2464.3338725566864
4416,2464.8768742084503
4417,2465.4338760375977
4418,2466.0028777122498
4419,2466.591879606247
4420,2467.1948816776276
4421,2467.7868835926056
4422,2468.3748853206635
4423,2468.9538872241974
4424,2469.5138890743256
4425,2470.0618908405304
4426,2470.6028923988342
4427,2471.1328942775726
4428,2471.6628959178925
4429,2472.190897464752
4430,2472.7238993644714
4431,2473.2659010887146
4432,2473.8189027309418
4433,2474.3879046440125
4434,2474.955906391144
4435,2475.5259082317352
4436,2476.102910041809
4437,2476.679911851883
4438,2477.2619137763977
4439,2477.8419156074524
4440,2478.4159173965454
4441,2478.9909193515778
4442,2479.564921140671
4443,2480.137923002243
4444,2480.706924676895
4445,2481.2659265995026
4446,2481.8189282417297
4447,2482.3699300289154
4448,2482.9169318675995
4449,2483.467933654785
4450,2484.0309352874756
4451,2484.6069371700287
4452,2485.199939250946
4453,2485.816941022873
4454,2486.4509432315826
4455,2487.0859451293945
4456,2487.716947078705
4457,2488.341949224472
4458,2488.947951078415
4459,2489.5439529418945
4460,2490.12695479393
4461,2490.7069566249847
4462,2491.284958600998
4463,2491.8649604320526
4464,2492.442962169647
4465,2493.029964208603
4466,2493.61696600914
4467,2494.203967809677
4468,2494.787969827652
4469,2495.37797164917
4470,2495.9739735126495
4471,2496.5739755630493
4472,2497.167977333069
4473,2497.7509791851044
4474,2498.327980995178
4475,2498.9009828567505
4476,2499.469984769821
4477,2500.0399866104126
4478,2500.607988357544
4479,2501.170990228653
4480,2501.7309918403625
4481,2502.2839937210083
4482,2502.833995580673
4483,2503.3869972229004
4484,2503.9499990940094
4485,2504.5260009765625
4486,2505.1110026836395
4487,2505.6900045871735
4488,2506.268006324768
4489,2506.8430082798004
4490,2507.4170100688934
4491,2507.9830119609833
4492,2508.545013666153
4493,2509.0990154743195
4494,2509.6470172405243
4495,2510.193018913269
4496,2510.735020637512
4497,2511.273022413254
4498,2511.807024240494
4499,2512.3430259227753
4500,2512.8930275440216
4501,2513.4580295085907
4502,2514.042031288147
4503,2514.637033224106
4504,2515.240035057068
4505,2515.848037004471
4506,2516.4650390148163
4507,2517.079041004181
4508,2517.6780428886414
4509,2518.263044834137
4510,2518.8380465507507
4511,2519.400048494339
4512,2519.9570500850677
4513,2520.5050518512726
4514,2521.046053647995
4515,2521.589055299759
4516,2522.1440572738647
4517,2522.715059041977
4518,2523.2950608730316
4519,2523.8850626945496
4520,2524.4950647354126
4521,2525.1060667037964
4522,2525.71706867218
4523,2526.3160705566406
4524,2526.9240725040436
4525,2527.536074399948
4526,2528.142076253891
4527,2528.736078262329
4528,2529.3170800209045
4529,2529.885081768036
4530,2530.447083711624
4531,2531.009085416794
4532,2531.564087152481
4533,2532.1150889396667
4534,2532.6660907268524
4535,2533.222092628479
4536,2533.7790942192078
4537,2534.3460960388184
4538,2534.9250979423523
4539,2535.4960997104645
4540,2536.0621016025543
4541,2536.6301033496857
4542,2537.1981053352356
4543,2537.7621071338654
4544,2538.326108932495
4545,2538.885110616684
4546,2539.446112394333
4547,2540.00111413002
4548,2540.5591158866882
4549,2541.1191177368164
4550,2541.683119535446
4551,2542.2451214790344
4552,2542.808123111725
4553,2543.3741250038147
4554,2543.9481267929077
4555,2544.5251286029816
4556,2545.0961303710938
4557,2545.6631321907043
4558,2546.2281341552734
4559,2546.788135766983
4560,2547.3491377830505
4561,2547.91113948822
4562,2548.47514128685
4563,2549.0431430339813
4564,2549.623144865036
4565,2550.212146759033
4566,2550.8061487674713
4567,2551.40115070343
4568,2552.0061526298523
4569,2552.6211545467377
4570,2553.2321565151215
4571,2553.8221583366394
4572,2554.4001603126526
4573,2554.9731619358063
4574,2555.540163755417
4575,2556.0991656780243
4576,2556.65016746521
4577,2557.2021691799164
4578,2557.764170885086
4579,2558.3311727046967
4580,2558.9291746616364
4581,2559.543176651001
4582,2560.1521785259247
4583,2560.772180557251
4584,2561.409182548523
4585,2562.0381846427917
4586,2562.6501865386963
4587,2563.2551884651184
4588,2563.854190349579
4589,2564.4391922950745
4590,2565.001194000244
4591,2565.551195859909
4592,2566.096197605133
4593,2566.6431992053986
4594,2567.1942009925842
4595,2567.7562029361725
4596,2568.321204662323
4597,2568.8862063884735
4598,2569.456208229065
4599,2570.032210111618
4600,2570.5972118377686
4601,2571.1502137184143
4602,2571.7202155590057
4603,2572.288217306137
4604,2572.8602192401886
4605,2573.4352209568024
4606,2574.0112228393555
4607,2574.580224752426
4608,2575.142226457596
4609,2575.6912281513214
4610,2576.2382299900055
4611,2576.790231704712
4612,2577.345233440399
4613,2577.9002351760864
4614,2578.4602370262146
4615,2579.022238969803
4616,2579.5852406024933
4617,2580.1552424430847
4618,2580.730244398117
4619,2581.3102462291718
4620,2581.886248111725
4621,2582.4622497558594
4622,2583.039251804352
4623,2583.6172535419464
4624,2584.2032554149628
4625,2584.791257381439
4626,2585.381259202957
4627,2585.961261034012
4628,2586.5302629470825
4629,2587.095264673233
4630,2587.6572663784027
4631,2588.2242681980133
4632,2588.791270017624
4633,2589.3592717647552
4634,2589.928273677826
4635,2590.502275466919
4636,2591.0852773189545
4637,2591.6672792434692
4638,2592.246281147003
4639,2592.8192830085754
4640,2593.39728474617
4641,2593.9772865772247
4642,2594.5602884292603
4643,2595.145290374756
4644,2595.7222921848297
4645,2596.2892940044403
4646,2596.85329580307
4647,2597.416297674179
4648,2597.9762992858887
4649,2598.536301136017
4650,2599.0953030586243
4651,2599.6483047008514
4652,2600.2033064365387
4653,2600.7663083076477
4654,2601.3353102207184
4655,2601.913311958313
4656,2602.490313768387
4657,2603.06431555748
4658,2603.627317428589
4659,2604.1793191432953
4660,2604.7203209400177
4661,2605.25732254982
4662,2605.79132437706
4663,2606.328325986862
4664,2606.8853278160095
4665,2607.4853298664093
4666,2608.152331829071
4667,2608.874334335327
4668,2609.616336584091
4669,2610.3593389987946
4670,2611.0783412456512
4671,2611.77334356308
4672,2612.4373455047607
4673,2613.0663475990295
4674,2613.668349504471
4675,2614.249351501465
4676,2614.8223531246185
4677,2615.3903551101685
4678,2615.968356847763
4679,2616.5523586273193
4680,2617.1443605422974
4681,2617.732362508774
4682,2618.3403644561768
4683,2618.9623663425446
4684,2619.5903685092926
4685,2620.2113704681396
4686,2620.8203723430634
4687,2621.4283742904663
4688,2622.0123760700226
4689,2622.5903780460358
4690,2623.163379907608
4691,2623.735381603241
4692,2624.3123836517334
4693,2624.892385482788
4694,2625.4733872413635
4695,2626.046389102936
4696,2626.616390943527
4697,2627.1863927841187
4698,2627.759394645691
4699,2628.3373963832855
4700,2628.9113981723785
4701,2629.484400033951
4702,2630.0644018650055
4703,2630.651403903961
4704,2631.241405725479
4705,2631.8354074954987
4706,2632.4314093589783
4707,2633.031411409378
4708,2633.6354134082794
4709,2634.229415178299
4710,2634.8124170303345
4711,2635.3894188404083
4712,2635.96342086792
4713,2636.5314226150513
4714,2637.093424320221
4715,2637.6494262218475
4716,2638.212427854538
4717,2638.767429828644
4718,2639.3114314079285
4719,2639.8584332466125
4720,2640.407434940338
4721,2640.965436697006
4722,2641.5334384441376
4723,2642.1114404201508
4724,2642.703442335129
4725,2643.2914440631866
4726,2643.8674459457397
4727,2644.4414477348328
4728,2645.017449617386
4729,2645.595451593399
4730,2646.1634533405304
4731,2646.7204551696777
4732,2647.272456884384
4733,2647.8274586200714
4734,2648.386460542679
4735,2648.931462287903
4736,2649.4724638462067
4737,2650.01646566391
4738,2650.5684673786163
4739,2651.1294691562653
4740,2651.7024710178375
4741,2652.2914729118347
4742,2652.8924748897552
4743,2653.500476837158
4744,2654.114478826523
4745,2654.732480764389
4746,2655.3574826717377
4747,2655.980484724045
4748,2656.59548664093
4749,2657.1944885253906
4750,2657.777490377426
4751,2658.357492208481
4752,2658.933494091034
4753,2659.507495880127
4754,2660.0874977111816
4755,2660.6794996261597
4756,2661.2945017814636
4757,2661.9375038146973
4758,2662.5835058689117
4759,2663.2705080509186
4760,2663.963510274887
4761,2664.6365122795105
4762,2665.2835144996643
4763,2665.937516450882
4764,2666.5865185260773
4765,2667.244520664215
4766,2667.8825228214264
4767,2668.5145246982574
4768,2669.1425268650055
4769,2669.757528781891
4770,2670.359530687332
4771,2670.9555325508118
4772,2671.5505344867706
4773,2672.1385362148285
4774,2672.715538263321
4775,2673.285539865494
4776,2673.848541736603
4777,2674.40554356575
4778,2674.966545343399
4779,2675.5315470695496
4780,2676.103549003601
4781,2676.6845507621765
4782,2677.272552728653
4783,2677.8575546741486
4784,2678.4375565052032
4785,2679.015558242798
4786,2679.59056019783
4787,2680.164561986923
4788,2680.7335636615753
4789,2681.305565595627
4790,2681.8835673332214
4791,2682.4635694026947
4792,2683.04457116127
4793,2683.6175730228424
4794,2684.1915748119354
4795,2684.76957654953
4796,2685.358578443527
4797,2685.9505803585052
4798,2686.548582315445
4799,2687.1365842819214
4800,2687.719586133957
4801,2688.3025879859924
4802,2688.885589838028
4803,2689.4795916080475
4804,2690.080593585968
4805,2690.6835956573486
4806,2691.278597354889
4807,2691.8615992069244
4808,2692.4446012973785
4809,2693.020602941513
4810,2693.5956048965454
4811,2694.178606748581
4812,2694.7756085395813
4813,2695.376610517502
4814,2695.984612464905
4815,2696.6126143932343
4816,2697.2696166038513
4817,2697.946618795395
4818,2698.6246209144592
4819,2699.282623052597
4820,2699.9286251068115
4821,2700.571627140045
4822,2701.2096292972565
4823,2701.845631122589
4824,2702.463633298874
4825,2703.065635204315
4826,2703.661637067795
4827,2704.247638940811
4828,2704.8176407814026
4829,2705.371642589569
4830,2705.9236443042755
4831,2706.480646133423
4832,2707.075647830963
4833,2707.701649904251
4834,2708.367651939392
4835,2709.0626542568207
4836,2709.7546565532684
4837,2710.415658712387
4838,2711.0746607780457
4839,2711.7126626968384
4840,2712.329664707184
4841,2712.936666727066
4842,2713.531668663025
4843,2714.113670349121
4844,2714.6806721687317
4845,2715.2446739673615
4846,2715.8066759109497
4847,2716.36967754364
4848,2716.9296793937683
4849,2717.478681087494
4850,2718.027683019638
4851,2718.573684692383
4852,2719.1206862926483
4853,2719.6616880893707
4854,2720.1946897506714
4855,2720.7266914844513
4856,2721.2546932697296
4857,2721.7816948890686
4858,2722.304696559906
4859,2722.8256981372833
4860,2723.352699995041
4861,2723.8867015838623
4862,2724.4307034015656
4863,2724.981705188751
4864,2725.530706882477
4865,2726.07470870018
4866,2726.6087102890015
4867,2727.1377120018005
4868,2727.6647136211395
4869,2728.187715291977
4870,2728.7097170352936
4871,2729.22971868515
4872,2729.7537202835083
4873,2730.2797219753265
4874,2730.807723760605
4875,2731.3357253074646
4876,2731.860727071762
4877,2732.3827288150787
4878,2732.9027304649353
4879,2733.4267320632935
4880,2733.9557337760925
4881,2734.4847354888916
4882,2735.01273727417
4883,2735.5407388210297
4884,2736.066740512848
4885,2736.5917422771454
4886,2737.1177439689636
4887,2737.6447455883026
4888,2738.1757473945618
4889,2738.7007489204407
4890,2739.224750518799
4891,2739.7487523555756
4892,2740.2757539749146
4893,2740.803755760193
4894,2741.3367574214935
4895,2741.8827590942383
4896,2742.4457609653473
4897,2743.0377628803253
4898,2743.6507647037506
4899,2744.2557666301727
4900,2744.8657686710358
4901,2745.4777705669403
4902,2746.0977725982666
4903,2746.7057745456696
4904,2747.2957763671875
4905,2747.8737783432007
4906,2748.439779996872
4907,2748.994781732559
4908,2749.545783519745
4909,2750.094785451889
4910,2750.6467871665955
4911,2751.2027888298035
4912,2751.7787907123566
4913,2752.3607926368713
4914,2752.966794490814
4915,2753.6047966480255
4916,2754.2727987766266
4917,2754.94980096817
4918,2755.5988030433655
4919,2756.24480509758
4920,2756.8848071098328
4921,2757.4988090991974
4922,2758.0908110141754
4923,2758.663812637329
4924,2759.226814508438
4925,2759.777816295624
4926,2760.324818134308
4927,2760.864819765091
4928,2761.411821603775
4929,2761.964823246002
4930,2762.5238251686096
4931,2763.070826768875
4932,2763.61882853508
4933,2764.1708302497864
4934,2764.729832172394
4935,2765.2898337841034
4936,2765.8528356552124
4937,2766.422837495804
4938,2766.995839357376
4939,2767.5638411045074
4940,2768.135843038559
4941,2768.70184469223
4942,2769.2648465633392
4943,2769.8238484859467
4944,2770.3818502426147
4945,2770.9378519058228
4946,2771.4938538074493
4947,2772.050855398178
4948,2772.6068572998047
4949,2773.1658589839935
4950,2773.727860927582
4951,2774.3048627376556
4952,2774.8948645591736
4953,2775.493866443634
4954,2776.0918684005737
4955,2776.6868703365326
4956,2777.280872106552
4957,2777.8768742084503
4958,2778.4668760299683
4959,2779.044877767563
4960,2779.620879650116
4961,2780.186881542206
4962,2780.7518832683563
4963,2781.3088850975037
4964,2781.8668868541718
4965,2782.4258885383606
4966,2782.9858903884888
4967,2783.5508921146393
4968,2784.1208939552307
4969,2784.6948959827423
4970,2785.269897699356
4971,2785.8448996543884
4972,2786.41490149498
4973,2786.9899032115936
4974,2787.554904937744
4975,2788.118906736374
4976,2788.6729085445404
4977,2789.221910238266
4978,2789.76691198349
4979,2790.3079137802124
4980,2790.8469154834747
4981,2791.3809173107147
4982,2791.9129190444946
4983,2792.448920726776
4984,2792.988922357559
4985,2793.5299241542816
4986,2794.079925775528
4987,2794.6309275627136
4988,2795.1939294338226
4989,2795.753931283951
4990,2796.3129329681396
4991,2796.8769347667694
4992,2797.435936689377
4993,2797.986938238144
4994,2798.5329401493073
4995,2799.0749418735504
4996,2799.6159434318542
4997,2800.147945165634
4998,2800.6729469299316
4999,2801.1949486732483
5000,2801.7169501781464
5001,2802.243952035904
5002,2802.7719535827637
5003,2803.3059554100037
5004,2803.8459570407867
5005,2804.3939588069916
5006,2804.9569606781006
5007,2805.529962539673
5008,2806.098964214325
5009,2806.6659660339355
5010,2807.2399678230286
5011,2807.806969642639
5012,2808.3639714717865
5013,2808.920973300934
5014,2809.477975130081
5015,2810.03697681427
5016,2810.5939786434174
5017,2811.147980451584
5018,2811.702982187271
5019,2812.2569839954376
5020,2812.811985731125
5021,2813.366987466812
5022,2813.9189891815186
5023,2814.469990968704
5024,2815.0239927768707
5025,2815.591994524002
5026,2816.1749963760376
5027,2816.7699983119965
5028,2817.3650002479553
5029,2817.9650020599365
5030,2818.569004058838
5031,2819.1800060272217
5032,2819.797008037567
5033,2820.4010100364685
5034,2820.9940118789673
5035,2821.574013710022
5036,2822.146015405655
5037,2822.7200174331665
5038,2823.2860190868378
5039,2823.8630208969116
5040,2824.456022977829
5041,2825.05602478981
5042,2825.670026779175
5043,2826.2970287799835
5044,2826.925030708313
5045,2827.54603266716
5046,2828.154034614563
5047,2828.74303650856
5048,2829.3210384845734
5049,2829.888040304184
5050,2830.444041967392
5051,2830.994043827057
5052,2831.5420455932617
5053,2832.0910472869873
5054,2832.640048980713
5055,2833.1910507678986
5056,2833.7490525245667
5057,2834.3150544166565
5058,2834.900056362152
5059,2835.4780580997467
5060,2836.051059961319
5061,2836.630061864853
5062,2837.2080636024475
5063,2837.778065443039
5064,2838.3450672626495
5065,2838.9060690402985
5066,2839.4610707759857
5067,2840.0110726356506
5068,2840.5560743808746
5069,2841.095076084137
5070,2841.63707780838
5071,2842.180079460144
5072,2842.729081392288
5073,2843.2820830345154
5074,2843.8390848636627
5075,2844.39608669281
5076,2844.9630885124207
5077,2845.526090145111
5078,2846.0880920886993
5079,2846.6440937519073
5080,2847.2050955295563
5081,2847.759097337723
5082,2848.31609916687
5083,2848.8651008605957
5084,2849.4131026268005
5085,2849.9581043720245
5086,2850.494106054306
5087,2851.028107881546
5088,2851.5641095638275
5089,2852.1011111736298
5090,2852.642112970352
5091,2853.1791145801544
5092,2853.719116449356
5093,2854.2611181735992
5094,2854.807119846344
5095,2855.3591215610504
5096,2855.910123348236
5097,2856.460125207901
5098,2857.0231268405914
5099,2857.592128753662
5100,2858.1641306877136
5101,2858.732132434845
5102,2859.291134119034
5103,2859.846135854721
5104,2860.399137735367
5105,2860.9491395950317
5106,2861.4951412677765
5107,2862.033143043518
5108,2862.5671446323395
5109,2863.1041464805603
5110,2863.6441481113434
5111,2864.1861498355865
5112,2864.741151571274
5113,2865.3111534118652
5114,2865.8941552639008
5115,2866.486157178879
5116,2867.0871591567993
5117,2867.6761610507965
5118,2868.2581627368927
5119,2868.8371646404266
5120,2869.4171664714813
5121,2869.986168384552
5122,2870.5411701202393
5123,2871.089171886444
5124,2871.629173517227
5125,2872.1701753139496
5126,2872.7001769542694
5127,2873.2261786460876
5128,2873.754180431366
5129,2874.283182144165
5130,2874.812183856964
5131,2875.3471853733063
5132,2875.8941872119904
5133,2876.445188999176
5134,2876.9971907138824
5135,2877.5551924705505
5136,2878.1191942691803
5137,2878.6841962337494
5138,2879.241197824478
5139,2879.802199602127
5140,2880.3642015457153
5141,2880.9212033748627
5142,2881.4752049446106
5143,2882.029206752777
5144,2882.5782086849213
5145,2883.124210357666
5146,2883.6602120399475
5147,2884.193213701248
5148,2884.720215320587
5149,2885.2402169704437
5150,2885.757218837738
5151,2886.2702202796936
5152,2886.782222032547
5153,2887.298223733902
5154,2887.817225217819
5155,2888.3402268886566
5156,2888.8622286319733
5157,2889.3932304382324
5158,2889.9302320480347
