,ECG_peaks
0,0.0
1,0.6439871788024902
2,1.2899742126464844
3,1.9309613704681396
4,2.576948642730713
5,3.22993540763855
6,3.876922607421875
7,4.525909662246704
8,5.182896375656128
9,5.865882873535156
10,6.518869638442993
11,7.20685601234436
12,7.862842798233032
13,8.503829956054688
14,9.1208176612854
15,9.727805614471436
16,10.33979344367981
17,10.961781024932861
18,11.629767656326294
19,12.345753192901611
20,13.303734064102173
21,14.25371503829956
22,15.098698139190674
23,15.8426833152771
24,16.567668914794922
25,17.234655618667603
26,17.903642177581787
27,18.593628406524658
28,19.355612993240356
29,20.393592357635498
30,21.360573053359985
31,22.249555349349976
32,23.102538108825684
33,23.917521953582764
34,24.70750617980957
35,25.456491231918335
36,26.138477563858032
37,26.776464700698853
38,27.41845202445984
39,28.069438934326172
40,28.76342511177063
41,29.51041007041931
42,30.624387741088867
43,31.591368436813354
44,32.46735095977783
45,33.30833411216736
46,34.11731791496277
47,34.90030241012573
48,35.67328691482544
49,36.43227171897888
50,37.152257204055786
51,37.84224343299866
52,38.54922938346863
53,39.225215911865234
54,39.949201345443726
55,40.68518662452698
56,41.372172832489014
57,42.03615975379944
58,42.69914650917053
59,43.36013317108154
60,44.027119874954224
61,44.69810652732849
62,45.400092363357544
63,46.0750789642334
64,46.7590651512146
65,47.429051876068115
66,48.08603882789612
67,48.7360258102417
68,49.4030122756958
69,50.10799837112427
70,50.78698468208313
71,51.46597123146057
72,52.13695764541626
73,52.846943616867065
74,53.58392882347107
75,54.373913049697876
76,55.24889540672302
77,56.15287733078003
78,57.0098602771759
79,57.82984399795532
80,58.53982973098755
81,59.21881604194641
82,59.88680291175842
83,60.5617892742157
84,61.311774253845215
85,62.41975212097168
86,63.430732011795044
87,64.40971231460571
88,65.2796950340271
89,66.11267828941345
90,66.91166234016418
91,67.67964696884155
92,68.40763235092163
93,69.03961992263794
94,69.66760730743408
95,70.27359509468079
96,70.8655834197998
97,71.44957160949707
98,72.01956033706665
99,72.58754897117615
100,73.14553761482239
101,73.70652651786804
102,74.26651525497437
103,74.82150411605835
104,75.37649321556091
105,75.92448210716248
106,76.47047114372253
107,77.01146054267883
108,77.54644966125488
109,78.07643914222717
110,78.60342860221863
111,79.12541818618774
112,79.64240789413452
113,80.15639758110046
114,80.6703872680664
115,81.18137717247009
116,81.70036673545837
117,82.22335624694824
118,82.73534607887268
119,83.24933576583862
120,83.75932550430298
121,84.26631546020508
122,84.76830530166626
123,85.27129530906677
124,85.77528524398804
125,86.28827500343323
126,86.80426454544067
127,87.3202543258667
128,87.84424376487732
129,88.40123271942139
130,88.95822167396545
131,89.51821041107178
132,90.08019924163818
133,90.6401879787445
134,91.19617676734924
135,91.75616574287415
136,92.32115435600281
137,92.8871431350708
138,93.46013164520264
139,94.04611992835999
140,94.6631076335907
141,95.30809473991394
142,95.96308159828186
143,96.62806820869446
144,97.28105521202087
145,97.91504263877869
146,98.54402995109558
147,99.16901755332947
148,99.7820053100586
149,100.39099311828613
150,100.993980884552
151,101.60496878623962
152,102.21795654296875
153,102.82594442367554
154,103.42993235588074
155,104.03492021560669
156,104.6349081993103
157,105.24789595603943
158,105.85788369178772
159,106.5418701171875
160,107.25385594367981
161,107.89684295654297
162,108.53583025932312
163,109.16981744766235
164,109.79880499839783
165,110.43379235267639
166,111.06677961349487
167,111.6987669467926
168,112.32675433158875
169,112.95474195480347
170,113.58772921562195
171,114.22271656990051
172,114.85970377922058
173,115.50169086456299
174,116.15167784690857
175,116.80366492271423
176,117.44965195655823
177,118.09063911437988
178,118.74662613868713
179,119.40361285209656
180,120.05959987640381
181,120.71858668327332
182,121.38057351112366
183,122.07155966758728
184,122.7265465259552
185,123.38153338432312
186,124.04052019119263
187,124.70950675010681
188,125.37649345397949
189,126.02648043632507
190,126.67246770858765
191,127.30845499038696
192,127.94944214820862
193,128.5954291820526
194,129.2454161643982
195,129.90540289878845
196,130.5633897781372
197,131.2303764820099
198,131.90336298942566
199,132.6053490638733
200,133.2853353023529
201,133.96232175827026
202,134.62730860710144
203,135.28229546546936
204,135.9252827167511
205,136.569269657135
206,137.2192566394806
207,137.872243642807
208,138.52123069763184
209,139.17021775245667
210,139.8362045288086
211,140.51219081878662
212,141.1901774406433
213,141.88816332817078
214,142.54815030097961
215,143.22013688087463
216,143.89812326431274
217,144.58210945129395
218,145.2870955467224
219,145.9620819091797
220,146.67706775665283
221,147.36105394363403
222,148.04104042053223
223,148.7100269794464
224,149.36901378631592
225,150.0190007686615
226,150.6929874420166
227,151.3979732990265
228,152.07295989990234
229,152.81994485855103
230,153.8349244594574
231,154.77390575408936
232,155.6278886795044
233,156.40287327766418
234,157.14985823631287
235,157.90484309196472
236,158.69582748413086
237,159.68080759048462
238,160.66578793525696
239,161.6467683315277
240,162.54975032806396
241,163.40873312950134
242,164.2187168598175
243,165.01470112800598
244,165.78468561172485
245,166.55267024040222
246,167.2846555709839
247,168.0436406135559
248,168.88462376594543
249,169.79360556602478
250,170.6765878200531
251,171.5255708694458
252,172.34855437278748
253,173.13353872299194
254,173.93252277374268
255,174.72650694847107
256,175.5144910812378
257,176.2814757823944
258,177.04846048355103
259,177.7994453907013
260,178.53343081474304
261,179.27941584587097
262,180.07039999961853
263,181.09037971496582
264,181.99536156654358
265,182.7923457622528
266,183.54233074188232
267,184.2323169708252
268,184.89230370521545
269,185.55129051208496
270,186.26727628707886
271,187.42625308036804
272,188.41223335266113
273,189.2962155342102
274,190.14219880104065
275,190.92118310928345
276,191.6741681098938
277,192.38015389442444
278,193.06114029884338
279,193.76312637329102
280,194.4871118068695
281,195.41509318351746
282,196.44507265090942
283,197.35305452346802
284,198.16503834724426
285,198.9300229549408
286,199.63000893592834
287,200.28499603271484
288,200.9449827671051
289,201.68096804618835
290,202.8309450149536
291,203.78692603111267
292,204.66090846061707
293,205.45489263534546
294,206.22187733650208
295,206.95386266708374
296,207.62084937095642
297,208.2788360118866
298,208.9468228816986
299,209.6578085422516
300,210.3827941417694
301,211.13077902793884
302,211.87076425552368
303,212.54175090789795
304,213.22573733329773
305,213.89172387123108
306,214.546710729599
307,215.18969798088074
308,215.82068538665771
309,216.4646725654602
310,217.10865950584412
311,217.74664688110352
312,218.37863421440125
313,219.01262164115906
314,219.6406090259552
315,220.26659655570984
316,220.88958406448364
317,221.51457142829895
318,222.14255905151367
319,222.7875461578369
320,223.44453287124634
321,224.15451884269714
322,224.8525047302246
323,225.51249146461487
324,226.16547846794128
325,226.81546545028687
326,227.46545243263245
327,228.10543966293335
328,228.75642681121826
329,229.4014139175415
330,230.0304012298584
331,230.66538858413696
332,231.30037593841553
333,231.92436337471008
334,232.5543508529663
335,233.19133806228638
336,233.82832527160645
337,234.4693124294281
338,235.12129950523376
339,235.7852861881256
340,236.4352731704712
341,237.0752604007721
342,237.70324778556824
343,238.3212354183197
344,238.93422317504883
345,239.54921102523804
346,240.16619873046875
347,240.78918623924255
348,241.4421730041504
349,242.16315865516663
350,242.84214520454407
351,243.50013208389282
352,244.15711879730225
353,244.82010555267334
354,245.47109246253967
355,246.1120798587799
356,246.75506687164307
357,247.4820523262024
358,248.4260334968567
359,249.3240156173706
360,250.0970001220703
361,250.8039858341217
362,251.45397305488586
363,252.0859603881836
364,252.73894715309143
365,253.47493267059326
366,254.50491189956665
367,255.4628927707672
368,256.3198757171631
369,257.2528569698334
370,258.1658387184143
371,259.0118217468262
372,259.80980587005615
373,260.5687906742096
374,261.2807765007019
375,261.94676327705383
376,262.59975004196167
377,263.31373596191406
378,264.5117118358612
379,265.51569175720215
380,266.47267270088196
381,267.3666548728943
382,268.18763852119446
383,268.9776225090027
384,269.75460720062256
385,270.52059173583984
386,271.2335774898529
387,271.90156412124634
388,272.6165499687195
389,273.33753538131714
390,274.08952045440674
391,274.9075040817261
392,275.83448553085327
393,276.6494691371918
394,277.37945461273193
395,278.04744124412537
396,278.7114279270172
397,279.35641503334045
398,280.002402305603
399,280.6513891220093
400,281.3043761253357
401,281.9723627567291
402,282.6893484592438
403,283.35833501815796
404,284.041321516037
405,284.7303075790405
406,285.4222939014435
407,286.11628007888794
408,286.8122661113739
409,287.5112521648407
410,288.1802387237549
411,288.83422565460205
412,289.4852125644684
413,290.1311995983124
414,290.768187046051
415,291.41317415237427
416,292.07516074180603
417,292.7371475696564
418,293.39813446998596
419,294.06112122535706
420,294.72410798072815
421,295.3780949115753
422,296.0240819454193
423,296.6700689792633
424,297.32105588912964
425,297.9710428714752
426,298.60703015327454
427,299.2330176830292
428,299.8590052127838
429,300.47899293899536
430,301.11598014831543
431,301.7829668521881
432,302.4979524612427
433,303.159939289093
434,303.8989245891571
435,304.6319098472595
436,305.29289650917053
437,305.9468834400177
438,306.58187079429626
439,307.20485830307007
440,307.8288459777832
441,308.45883321762085
442,309.10982036590576
443,309.8248059749603
444,310.54979157447815
445,311.2327778339386
446,311.9017643928528
447,312.5697510242462
448,313.2237379550934
449,313.87572503089905
450,314.5297119617462
451,315.17069911956787
452,315.80368638038635
453,316.44167375564575
454,317.08566093444824
455,317.7346477508545
456,318.37763500213623
457,319.02062225341797
458,319.6566095352173
459,320.2945966720581
460,320.94358372688293
461,321.591570854187
462,322.22955799102783
463,322.87854504585266
464,323.5395317077637
465,324.2035186290741
466,324.8615052700043
467,325.5364918708801
468,326.2584774494171
469,326.93346405029297
470,327.60045051574707
471,328.2574374675751
472,328.9044246673584
473,329.5484116077423
474,330.1943988800049
475,330.8323860168457
476,331.44837379455566
477,332.04936170578003
478,332.6273500919342
479,333.19033885002136
480,333.74932765960693
481,334.30931639671326
482,334.8783051967621
483,335.45629358291626
484,336.0362820625305
485,336.62427020072937
486,337.21525835990906
487,337.80024671554565
488,338.3802351951599
489,338.95122361183167
490,339.5332119464874
491,340.1302001476288
492,340.7591874599457
493,341.4571735858917
494,342.10816049575806
495,342.7641475200653
496,343.41313457489014
497,344.0431218147278
498,344.6561095714569
499,345.26309752464294
500,345.86508536338806
501,346.4680733680725
502,347.06206154823303
503,347.65204977989197
504,348.2460379600525
505,348.85102581977844
506,349.4820132255554
507,350.1340000629425
508,350.7619876861572
509,351.3529758453369
510,351.92396426200867
511,352.49795293807983
512,353.10194087028503
513,353.7299282550812
514,354.3329162597656
515,354.9149045944214
516,355.47389340400696
517,356.0218825340271
518,356.5688714981079
519,357.11686062812805
520,357.6588497161865
521,358.20583868026733
522,358.7568278312683
523,359.3038167953491
524,359.8468060493469
525,360.39579486846924
526,360.9467840194702
527,361.4997730255127
528,362.0617616176605
529,362.6317503452301
530,363.20473885536194
531,363.77572751045227
532,364.34371614456177
533,364.9317042827606
534,365.53469228744507
535,366.14468002319336
536,366.7516679763794
537,367.3476560115814
538,367.92864441871643
539,368.502632856369
540,369.0726215839386
541,369.6366102695465
542,370.1945991516113
543,370.75458788871765
544,371.32057666778564
545,371.910564661026
546,372.5275523662567
547,373.16353964805603
548,373.805526971817
549,374.43951416015625
550,375.0595018863678
551,375.6654896736145
552,376.2674777507782
553,376.85946583747864
554,377.44645404815674
555,378.0324423313141
556,378.6284303665161
557,379.3254165649414
558,380.3323965072632
559,381.2453782558441
560,382.0603618621826
561,382.78134751319885
562,383.44633412361145
563,384.07132172584534
564,384.70030903816223
565,385.34729623794556
566,386.4082748889923
567,387.4072549343109
568,388.34623622894287
569,389.21121883392334
570,390.20819902420044
571,391.20517897605896
572,392.20215916633606
573,392.8641457557678
574,393.5311324596405
575,394.2891173362732
576,395.4610939025879
577,396.49507331848145
578,397.42605471611023
579,398.24803829193115
580,399.03102254867554
581,399.80400705337524
582,400.57099175453186
583,401.3279767036438
584,402.14196038246155
585,403.12594079971313
586,404.1069211959839
587,405.06090211868286
588,405.9678838253021
589,406.80086731910706
590,407.561851978302
591,408.31483697891235
592,409.0808217525482
593,409.95380425453186
594,410.98178362846375
595,411.99976325035095
596,412.9277448654175
597,413.75072836875916
598,414.52371287345886
599,415.30869722366333
600,416.11368107795715
601,416.9466643333435
602,417.80764722824097
603,418.6696300506592
604,419.55761218070984
605,420.38759565353394
606,421.18157982826233
607,421.92956471443176
608,422.6295506954193
609,423.35253643989563
610,424.0345227718353
611,425.2034993171692
612,426.2174789905548
613,427.18545961380005
614,428.11044120788574
615,428.99542355537415
616,429.8434066772461
617,430.7003893852234
618,431.6003713607788
619,432.48835372924805
620,433.37333607673645
621,434.2803177833557
622,435.1772999763489
623,436.03228282928467
624,436.8292670249939
625,437.6182510852814
626,438.3372368812561
627,439.0152232646942
628,439.7132091522217
629,440.9241850376129
630,441.90716528892517
631,442.7781479358673
632,443.5991315841675
633,444.3851158618927
634,445.1371009349823
635,445.87108612060547
636,447.0580623149872
637,448.06904220581055
638,449.01902318000793
639,449.91300535202026
640,450.7239890098572
641,451.50897336006165
642,452.29295778274536
643,453.06394243240356
644,453.84692668914795
645,454.7669084072113
646,455.77688813209534
647,456.7008695602417
648,457.54485273361206
649,458.35183668136597
650,459.15782046318054
651,459.90180563926697
652,460.5787920951843
653,461.2537786960602
654,461.95576453208923
655,463.1457407474518
656,464.0267231464386
657,464.7847080230713
658,465.4986937046051
659,466.13068103790283
660,466.77966809272766
661,467.45565462112427
662,468.6596305370331
663,469.6756103038788
664,470.6245913505554
665,471.47857427597046
666,472.2945578098297
667,473.1135416030884
668,473.95552468299866
669,474.85950660705566
670,475.79248785972595
671,476.7394690513611
672,477.6774501800537
673,478.5384330749512
674,479.3354170322418
675,480.12640142440796
676,480.9003858566284
677,481.58537220954895
678,482.27135848999023
679,483.05034279823303
680,484.1813201904297
681,485.15430068969727
682,485.9982838630676
683,486.7682685852051
684,487.4822542667389
685,488.10424184799194
686,488.7362291812897
687,489.3682165145874
688,490.50919365882874
689,491.4741744995117
690,492.36615657806396
691,493.25913882255554
692,494.09712195396423
693,494.86110663414
694,495.62209153175354
695,496.2890782356262
696,496.9370651245117
697,497.59305214881897
698,498.2690386772156
699,499.45701479911804
700,500.4039959907532
701,501.26497864723206
702,502.09296226501465
703,502.8599467277527
704,503.5379333496094
705,504.1779205799103
706,504.8389072418213
707,505.5238935947418
708,506.28487825393677
709,507.01786375045776
710,508.1988401412964
711,509.1318213939667
712,509.9748046398163
713,510.76178884506226
714,511.4907741546631
715,512.1497611999512
716,512.8127479553223
717,513.4247355461121
718,514.0367233753204
719,515.0537030696869
720,515.937685251236
721,516.7636687755585
722,517.5376534461975
723,518.2736387252808
724,518.9436252117157
725,520.1276016235352
726,521.0835824012756
727,521.8755667209625
728,522.5915522575378
729,523.195540189743
730,524.3655169010162
731,524.9695048332214
732,525.5914924144745
733,526.7564690113068
734,527.7684488296509
735,528.7434294223785
736,529.6764106750488
737,530.5313935279846
738,531.3503773212433
739,532.164361000061
740,532.9593451023102
741,533.7283296585083
742,534.4773147106171
743,535.184300661087
744,536.4042761325836
745,537.4852545261383
746,538.4992341995239
747,539.3822166919708
748,540.2132000923157
749,541.0191838741302
750,541.7811686992645
751,542.5361535549164
752,543.4521353244781
753,544.6041121482849
754,545.6500914096832
755,546.5880725383759
756,547.444055557251
757,548.2440395355225
758,549.0320236682892
759,549.796008348465
760,550.5779929161072
761,551.7919685840607
762,552.8489475250244
763,553.8549273014069
764,554.7339098453522
765,555.5588932037354
766,556.3498773574829
767,557.0788629055023
768,557.7438495159149
769,558.4748349189758
770,559.6738109588623
771,560.7267899513245
772,561.7037703990936
773,562.5747530460358
774,563.3957366943359
775,564.1867208480835
776,564.936705827713
777,565.6156921386719
778,566.2996785640717
779,566.9646651744843
780,567.6396517753601
781,568.3306379318237
782,569.0246241092682
783,569.7076103687286
784,570.3775970935822
785,571.0575833320618
786,571.7365698814392
787,572.4315559864044
788,573.1325418949127
789,573.818528175354
790,574.5095143318176
791,575.2175002098083
792,575.9294860363007
793,576.636471748352
794,577.3574573993683
795,578.1214420795441
796,578.7994287014008
797,579.4864149093628
798,580.1874008178711
799,580.903386592865
800,581.5963726043701
801,582.2723591327667
802,582.9473457336426
803,583.6163322925568
804,584.2973186969757
805,584.9733052253723
806,585.6382918357849
807,586.2992787361145
808,586.9752652645111
809,587.65425157547
810,588.3292381763458
811,589.0172243118286
812,589.6227121353149
813,590.2282001972198
814,591.1841809749603
815,592.0631635189056
816,592.8731472492218
817,593.6101324558258
818,594.3461177349091
819,595.0151045322418
820,595.801088809967
821,596.7320702075958
822,597.7510497570038
823,598.6680314540863
824,599.54101395607
825,600.3139984607697
826,601.0719833374023
827,601.8069686889648
828,602.4889550209045
829,603.2019407749176
830,603.9759252071381
831,605.1999008655548
832,606.1718814373016
833,607.0448639392853
834,607.8498477935791
835,608.6088325977325
836,609.3578176498413
837,610.0418040752411
838,610.8327882289886
839,611.7777693271637
840,612.8137485980988
841,613.8037288188934
842,614.7017109394073
843,615.5536937713623
844,616.3596777915955
845,617.180661201477
846,617.9706454277039
847,618.735630273819
848,619.4786152839661
849,620.4455959796906
850,621.5165746212006
851,622.4495558738708
852,623.3195385932922
853,624.118522644043
854,624.8425080776215
855,625.5594937801361
856,626.2614798545837
857,627.4854552745819
858,628.5464341640472
859,629.4724154472351
860,630.3543980121613
861,631.1843812465668
862,631.9783654212952
863,632.7603497505188
864,633.5023350715637
865,634.1863212585449
866,634.8763074874878
867,635.6412923336029
868,636.4062769412994
869,637.1602618694305
870,637.9242465496063
871,638.6942312717438
872,639.4142167568207
873,640.14120221138
874,640.878187417984
875,641.6061730384827
876,642.3321585655212
877,643.0431442260742
878,643.7531299591064
879,644.4751155376434
880,645.1881012916565
881,645.9030871391296
882,646.6120729446411
883,647.2890594005585
884,647.9700458049774
885,648.6510322093964
886,649.3430182933807
887,650.0960032939911
888,650.8579881191254
889,651.5719738006592
890,652.2769596576691
891,652.981945514679
892,653.6659319400787
893,654.340918302536
894,655.0299046039581
895,655.7298905849457
896,656.4238767623901
897,657.1168627738953
898,657.8318486213684
899,658.5498342514038
900,659.2468202114105
901,659.9338066577911
902,660.623792886734
903,661.3127789497375
904,661.9867656230927
905,662.6677520275116
906,663.348738193512
907,664.0257246494293
908,664.6977112293243
909,665.3806977272034
910,666.0556840896606
911,666.7206709384918
912,667.3936574459076
913,668.0736439228058
914,668.7246308326721
915,669.3726179599762
916,669.9721059799194
917,670.5715939998627
918,671.5415744781494
919,672.3605580329895
920,673.054544210434
921,673.696531534195
922,674.3275187015533
923,674.9555063247681
924,675.5774939060211
925,676.2144811153412
926,677.392457485199
927,678.4294369220734
928,679.4164171218872
929,680.3323986530304
930,681.1713819503784
931,681.9513664245605
932,682.686351776123
933,683.4193370342255
934,684.160322189331
935,685.3442986011505
936,686.391277551651
937,687.3492584228516
938,688.2282409667969
939,689.0402247905731
940,689.8042094707489
941,690.5491945743561
942,691.2171812057495
943,691.8741679191589
944,692.5431547164917
945,693.2121412754059
946,693.8811278343201
947,694.5791139602661
948,695.3510985374451
949,696.3360788822174
950,697.3420586585999
951,698.189041852951
952,698.9480266571045
953,699.6880118846893
954,700.3709981441498
955,701.0569844245911
956,701.7669701576233
957,702.5229551792145
958,703.2369408607483
959,703.9429266452789
960,704.7189111709595
961,705.5288951396942
962,706.5698742866516
963,707.5318548679352
964,708.3508386611938
965,709.0728242397308
966,709.7968096733093
967,710.4617965221405
968,711.1527826786041
969,711.8557684421539
970,712.564754486084
971,713.2637403011322
972,713.9537265300751
973,714.6937117576599
974,715.4496967792511
975,716.2186813354492
976,716.9246671199799
977,717.6076536178589
978,718.27064037323
979,718.9116275310516
980,719.5636143684387
981,720.2326011657715
982,720.9255871772766
983,721.6665723323822
984,722.3795580863953
985,723.1055436134338
986,723.8685283660889
987,724.5775141716003
988,725.3314990997314
989,726.0214853286743
990,726.6904718875885
991,727.3644585609436
992,728.0534446239471
993,728.7964298725128
994,729.491415977478
995,730.1784021854401
996,730.8583886623383
997,731.5453748703003
998,732.2353610992432
999,732.9283473491669
1000,733.6073336601257
1001,734.2863202095032
1002,734.9613065719604
1003,735.6262934207916
1004,736.2972798347473
1005,736.9872660636902
1006,737.7022519111633
1007,738.4542367458344
1008,739.1642224788666
1009,739.9112076759338
1010,740.6031937599182
1011,741.2831802368164
1012,741.9641666412354
1013,742.6511528491974
1014,743.3371391296387
1015,744.0041258335114
1016,744.6851122379303
1017,745.4360971450806
1018,746.2320811748505
1019,747.1690626144409
1020,747.9610466957092
1021,748.6780323982239
1022,749.3500189781189
1023,750.0170056819916
1024,750.7859902381897
1025,752.0369651317596
1026,753.0939440727234
1027,754.0499250888824
1028,754.9069077968597
1029,755.7108917236328
1030,756.4948761463165
1031,757.2608606815338
1032,758.0378453731537
1033,758.9158277511597
1034,759.8778085708618
1035,760.819789648056
1036,761.732771396637
1037,762.6157536506653
1038,763.490736246109
1039,764.3727185726166
1040,765.2287015914917
1041,766.0336854457855
1042,766.7666707038879
1043,767.444657087326
1044,768.1066439151764
1045,768.7686307430267
1046,769.4416172504425
1047,770.1486032009125
1048,770.9165878295898
1049,771.6925723552704
1050,772.3965582847595
1051,773.0805444717407
1052,773.7625308036804
1053,774.4655168056488
1054,775.6434931755066
1055,776.7904703617096
1056,777.7994501590729
1057,778.6874325275421
1058,779.4954161643982
1059,780.2584009170532
1060,780.9873864650726
1061,781.7463712692261
1062,782.9583470821381
1063,784.012326002121
1064,784.9943063259125
1065,785.9232878684998
1066,786.8642690181732
1067,787.795250415802
1068,788.7152318954468
1069,789.592214345932
1070,790.4181978702545
1071,791.2241818904877
1072,791.9771666526794
1073,792.6941523551941
1074,793.3661389350891
1075,794.047125339508
1076,794.8491094112396
1077,796.0060861110687
1078,797.052065372467
1079,798.0090460777283
1080,798.8970284461975
1081,799.7360117435455
1082,800.5399956703186
1083,801.3299796581268
1084,802.0959644317627
1085,802.8099501132965
1086,803.5319356918335
1087,804.2459213733673
1088,805.0429055690765
1089,806.2778809070587
1090,807.3478593826294
1091,808.281840801239
1092,809.133823633194
1093,809.9248080253601
1094,810.6827926635742
1095,811.3787789344788
1096,812.0407655239105
1097,812.704752445221
1098,813.3947386741638
1099,813.9907267093658
1100,814.5867147445679
1101,815.5646951198578
1102,816.4366776943207
1103,817.2676610946655
1104,818.0856447219849
1105,818.9056284427643
1106,819.678612947464
1107,820.3735990524292
1108,821.0695850849152
1109,821.7555713653564
1110,822.4375576972961
1111,823.1185441017151
1112,823.7945306301117
1113,824.4745171070099
1114,825.1595034599304
1115,825.8444895744324
1116,826.5224761962891
1117,827.192462682724
1118,827.8604493141174
1119,828.5314359664917
1120,829.2144222259521
1121,829.9614074230194
1122,830.6803929805756
1123,831.3823790550232
1124,832.0563654899597
1125,832.71635222435
1126,833.3693392276764
1127,834.019326210022
1128,834.6683132648468
1129,835.3233001232147
1130,835.9802870750427
1131,836.6312739849091
1132,837.2792611122131
1133,837.9102485179901
1134,838.5412359237671
1135,839.6082146167755
1136,840.5591955184937
1137,841.4431777000427
1138,842.2641613483429
1139,843.0451457500458
1140,843.7681312561035
1141,844.4541175365448
1142,845.1541035175323
1143,845.8760890960693
1144,846.6360740661621
1145,847.8790490627289
1146,848.9720273017883
1147,850.0090065002441
1148,850.9489877223969
1149,851.8209702968597
1150,852.6659533977509
1151,853.5029366016388
1152,854.3559195995331
1153,855.2349021434784
1154,856.1118845939636
1155,856.9598677158356
1156,857.7808511257172
1157,858.535835981369
1158,859.2738213539124
1159,860.0958049297333
1160,861.2297823429108
1161,862.2867610454559
1162,863.2447419166565
1163,864.1287243366241
1164,864.9637076854706
1165,865.746691942215
1166,866.5206763744354
1167,867.2666616439819
1168,867.9786472320557
1169,868.6996328830719
1170,869.943608045578
1171,871.0335862636566
1172,872.024566411972
1173,872.9515478610992
1174,873.815530538559
1175,874.645514011383
1176,875.4574978351593
1177,876.2294824123383
1178,876.9754674434662
1179,877.6964530944824
1180,878.4514379501343
1181,879.2054228782654
1182,880.4303984642029
1183,881.4823772907257
1184,882.4083588123322
1185,883.2553420066833
1186,884.0473260879517
1187,884.8193106651306
1188,885.5412962436676
1189,886.2282824516296
1190,886.9272685050964
1191,887.6722536087036
1192,888.4292385578156
1193,889.6162147521973
1194,890.632194519043
1195,891.5311763286591
1196,892.344160079956
1197,893.1141448020935
1198,893.8051309585571
1199,894.4481182098389
1200,895.0731055736542
1201,895.7120928764343
1202,896.3630797863007
1203,897.5170567035675
1204,898.5380363464355
1205,899.5240166187286
1206,900.4509980678558
1207,901.2999811172485
1208,902.0719656944275
1209,902.7989511489868
1210,903.4219386577606
1211,904.0619258880615
1212,904.6949133872986
1213,905.3399004936218
1214,906.1158847808838
1215,907.3148608207703
1216,908.3828394412994
1217,909.3828196525574
1218,910.2878015041351
1219,911.1127848625183
1220,911.8947694301605
1221,912.6207547187805
1222,913.2977411746979
1223,913.9807276725769
1224,914.6727137565613
1225,915.4636979103088
1226,916.5076770782471
1227,917.5396564006805
1228,918.4676380157471
1229,919.3556201457977
1230,920.1966032981873
1231,920.9905874729156
1232,921.7135729789734
1233,922.3915596008301
1234,923.0735459327698
1235,923.7625319957733
1236,924.5005173683167
1237,925.1945035457611
1238,925.9064891338348
1239,926.6254749298096
1240,927.3334605693817
1241,928.0274467468262
1242,928.7304327487946
1243,929.5224168300629
1244,930.686393737793
1245,931.6443746089935
1246,932.4763579368591
1247,933.2013432979584
1248,933.8873295783997
1249,934.5123171806335
1250,935.1603043079376
1251,935.817291021347
1252,936.498277425766
1253,937.7152531147003
1254,938.7732319831848
1255,939.7722120285034
1256,940.6741938591003
1257,941.7021734714508
1258,942.6301548480988
1259,943.4781379699707
1260,944.2611222267151
1261,944.9941077232361
1262,945.6510944366455
1263,946.3010814189911
1264,946.9700682163239
1265,947.7770519256592
1266,948.8450305461884
1267,949.8620102405548
1268,950.8399908542633
1269,951.753972530365
1270,952.631954908371
1271,953.4469385147095
1272,954.2189230918884
1273,954.9099094867706
1274,955.551896572113
1275,956.2158832550049
1276,956.8768701553345
1277,957.5478565692902
1278,958.2478425502777
1279,959.4518184661865
1280,960.453798532486
1281,961.3677802085876
1282,962.1987636089325
1283,962.9737482070923
1284,963.7267332077026
1285,964.407719373703
1286,965.0777060985565
1287,965.7536926269531
1288,966.4356789588928
1289,967.1356649398804
1290,967.7536525726318
1291,968.3716402053833
1292,969.4206192493439
1293,970.371600151062
1294,971.2365829944611
1295,972.0455667972565
1296,972.8045516014099
1297,973.4995377063751
1298,974.1725242137909
1299,974.8475108146667
1300,975.5504968166351
1301,976.3154814243317
1302,977.0784661769867
1303,977.8484508991241
1304,978.6594345569611
1305,979.7584125995636
1306,980.7303931713104
1307,981.5523767471313
1308,982.3003618717194
1309,982.9463489055634
1310,983.6043357849121
1311,984.2653224468231
1312,984.9243092536926
1313,985.6112957000732
1314,986.4012796878815
1315,987.5452568531036
1316,988.5202374458313
1317,989.3632206916809
1318,990.0782063007355
1319,990.7601926326752
1320,991.3891801834106
1321,992.0381669998169
1322,992.6781542301178
1323,993.3261413574219
1324,993.9881281852722
1325,994.7551128864288
1326,995.8360912799835
1327,996.8000719547272
1328,997.6870541572571
1329,998.4910380840302
1330,999.2420229911804
1331,999.953008890152
1332,1000.6329953670502
1333,1001.3429811000824
1334,1002.1269652843475
1335,1003.1039459705353
1336,1003.9999279975891
1337,1004.8809103965759
1338,1005.7178936004639
1339,1006.4938781261444
1340,1007.208863735199
1341,1007.8878502845764
1342,1008.5548369884491
1343,1009.2138237953186
1344,1009.8448112010956
1345,1010.4757986068726
1346,1011.1147856712341
1347,1011.7567729949951
1348,1012.3967599868774
1349,1013.0507469177246
1350,1013.7207336425781
1351,1014.4077198505402
1352,1015.1577048301697
1353,1015.925689458847
1354,1016.814671754837
1355,1017.7406532764435
1356,1018.5126378536224
1357,1019.1786243915558
1358,1019.8336114883423
1359,1020.4775984287262
1360,1021.1245856285095
1361,1021.7715725898743
1362,1022.4255595207214
1363,1023.0735466480255
1364,1023.7395334243774
1365,1024.4065198898315
1366,1025.0755066871643
1367,1025.7434933185577
1368,1026.4014801979065
1369,1027.0444672107697
1370,1027.691454410553
1371,1028.3334414958954
1372,1028.9614288806915
1373,1029.5784165859222
1374,1030.1944043636322
1375,1030.8073921203613
1376,1031.4113800525665
1377,1032.0083680152893
1378,1032.6073560714722
1379,1033.2123439311981
1380,1033.8153319358826
1381,1034.418319940567
1382,1035.0263075828552
1383,1035.6382954120636
1384,1036.2402834892273
1385,1036.8382713794708
1386,1037.4322595596313
1387,1038.0272476673126
1388,1038.619235754013
1389,1039.2102239131927
1390,1039.801212310791
1391,1040.3922004699707
1392,1040.987188577652
1393,1041.5901763439178
1394,1042.1921644210815
1395,1042.7901525497437
1396,1043.3811407089233
1397,1043.9741287231445
1398,1044.562117099762
1399,1045.1461052894592
1400,1045.7320935726166
1401,1046.320081949234
1402,1046.9030702114105
1403,1047.4870586395264
1404,1048.0720467567444
1405,1048.659035205841
1406,1049.244023323059
1407,1049.828011751175
1408,1050.4189999103546
1409,1051.0149879455566
1410,1051.6129760742188
1411,1052.2149641513824
1412,1052.8269517421722
1413,1053.449939250946
1414,1054.07492685318
1415,1054.6849145889282
1416,1055.2879025936127
1417,1055.9018902778625
1418,1056.5298776626587
1419,1057.161865234375
1420,1057.8028523921967
1421,1058.4568393230438
1422,1059.1078262329102
1423,1059.7488133907318
1424,1060.3908004760742
1425,1061.0317878723145
1426,1061.672775030136
1427,1062.3097622394562
1428,1062.958749294281
1429,1063.6297359466553
1430,1064.291722536087
1431,1064.9327096939087
1432,1065.5696971416473
1433,1066.2156841754913
1434,1066.8676710128784
1435,1067.5156581401825
1436,1068.1606452465057
1437,1068.8106322288513
1438,1069.4576194286346
1439,1070.1056063175201
1440,1070.7595932483673
1441,1071.4145801067352
1442,1072.0695672035217
1443,1072.723554134369
1444,1073.3785409927368
1445,1074.0355277061462
1446,1074.7005145549774
1447,1075.371500968933
1448,1076.0594873428345
1449,1076.7664732933044
1450,1077.440459728241
1451,1078.1074464321136
1452,1078.7724330425262
1453,1079.441419839859
1454,1080.1304059028625
1455,1080.8853907585144
1456,1081.6383757591248
1457,1082.3583614826202
1458,1083.0523474216461
1459,1083.7403337955475
1460,1084.4173202514648
1461,1085.0783069133759
1462,1085.7422938346863
1463,1086.4312798976898
1464,1087.1722650527954
1465,1087.850251674652
1466,1088.5882368087769
1467,1089.362221479416
1468,1090.3172023296356
1469,1091.2161843776703
1470,1092.0121684074402
1471,1092.7701532840729
1472,1093.480139017105
1473,1094.1591255664825
1474,1094.8391118049622
1475,1095.5090985298157
1476,1096.2480838298798
1477,1097.2080645561218
1478,1098.261043548584
1479,1099.1870250701904
1480,1100.0150084495544
1481,1100.7749931812286
1482,1101.5239782333374
1483,1102.238963842392
1484,1102.960949420929
1485,1103.7019348144531
1486,1104.6229162216187
1487,1105.631896018982
1488,1106.6038765907288
1489,1107.4928588867188
1490,1108.321842432022
1491,1109.097826719284
1492,1109.8838109970093
1493,1110.6297962665558
1494,1111.3667814731598
1495,1112.0987668037415
1496,1112.8877511024475
1497,1113.89373087883
1498,1114.8287122249603
1499,1115.642695903778
1500,1116.4076807498932
1501,1117.1206665039062
1502,1117.817652463913
1503,1118.5796372890472
1504,1119.5226182937622
1505,1120.5735974311829
1506,1121.5115785598755
1507,1122.3765614032745
1508,1123.1805453300476
1509,1123.9595296382904
1510,1124.6685154438019
1511,1125.357501745224
1512,1126.0814871788025
1513,1126.8504719734192
1514,1128.0364482402802
1515,1129.1064267158508
1516,1130.0734074115753
1517,1130.9343903064728
1518,1131.7333743572235
1519,1132.492359161377
1520,1133.2333443164825
1521,1133.9703295230865
1522,1135.0673077106476
1523,1136.1102867126465
1524,1137.0912671089172
1525,1137.9942491054535
1526,1138.8632316589355
1527,1139.6822154521942
1528,1140.4472000598907
1529,1141.218184709549
1530,1141.9331703186035
1531,1142.6721556186676
1532,1143.3881413936615
1533,1144.1601259708405
1534,1144.9671096801758
1535,1146.0640878677368
1536,1147.0780675411224
1537,1147.943050146103
1538,1148.7550339698792
1539,1149.501019001007
1540,1150.176005601883
1541,1150.8459920883179
1542,1151.5799775123596
1543,1152.7919533252716
1544,1153.8559319972992
1545,1154.8239126205444
1546,1155.681895494461
1547,1156.5048789978027
1548,1157.2938632965088
1549,1158.0348484516144
1550,1158.7078349590302
1551,1159.3668217658997
1552,1160.0418083667755
1553,1160.7397944927216
1554,1161.5087790489197
1555,1162.5447583198547
1556,1163.5677378177643
1557,1164.425720691681
1558,1165.1727058887482
1559,1165.8996913433075
1560,1166.549678325653
1561,1167.221664905548
1562,1167.8986513614655
1563,1168.646636247635
1564,1169.825612783432
1565,1170.8195929527283
1566,1171.7035751342773
1567,1172.513559103012
1568,1173.2905435562134
1569,1173.970529794693
1570,1174.6245167255402
1571,1175.21750497818
1572,1175.819492816925
1573,1176.4344806671143
1574,1177.0764677524567
1575,1177.8214528560638
1576,1178.9814298152924
1577,1179.9704098701477
1578,1180.8823916912079
1579,1181.7093751430511
1580,1182.4513602256775
1581,1183.1103472709656
1582,1183.7363345623016
1583,1184.365322113037
1584,1185.0103092193604
1585,1185.6672959327698
1586,1186.412281036377
1587,1187.3672621250153
1588,1188.4102411270142
1589,1189.308223247528
1590,1190.1142070293427
1591,1190.8711919784546
1592,1191.5611782073975
1593,1192.231164932251
1594,1192.9111511707306
1595,1193.5971374511719
1596,1194.2651240825653
1597,1194.908111333847
1598,1195.537098646164
1599,1196.1650862693787
1600,1196.8030734062195
1601,1197.4520604610443
1602,1198.1290469169617
1603,1198.8250329494476
1604,1199.4970195293427
1605,1200.1520063877106
1606,1200.7979936599731
1607,1201.4349808692932
1608,1202.0659682750702
1609,1202.686955690384
1610,1203.3169431686401
1611,1203.9529304504395
1612,1204.5959177017212
1613,1205.2419047355652
1614,1205.8838918209076
1615,1206.5188791751862
1616,1207.1358668804169
1617,1207.7448546886444
1618,1208.3568425178528
1619,1208.966830253601
1620,1209.5818178653717
1621,1210.1988055706024
1622,1210.8177931308746
1623,1211.4337809085846
1624,1212.045768737793
1625,1212.6597564220428
1626,1213.2797439098358
1627,1213.8937318325043
1628,1214.505719423294
1629,1215.1147072315216
1630,1215.7216951847076
1631,1216.324683189392
1632,1216.9286711215973
1633,1217.528659105301
1634,1218.1236472129822
1635,1218.7156352996826
1636,1219.3026235103607
1637,1219.8796119689941
1638,1220.4516005516052
1639,1221.0215892791748
1640,1221.5885779857635
1641,1222.1535665988922
1642,1222.7155554294586
1643,1223.2835440635681
1644,1223.8515326976776
1645,1224.419521331787
1646,1224.9855098724365
1647,1225.5524985790253
1648,1226.1174874305725
1649,1226.6844761371613
1650,1227.2534646987915
1651,1227.830453157425
1652,1228.4064416885376
1653,1228.9824299812317
1654,1229.5614185333252
1655,1230.1364068984985
1656,1230.7073955535889
1657,1231.2773842811584
1658,1231.8483726978302
1659,1232.417361497879
1660,1232.9863500595093
1661,1233.5613384246826
1662,1234.1393270492554
1663,1234.7123155593872
1664,1235.285304069519
1665,1235.8572926521301
1666,1236.4312810897827
1667,1237.0032696723938
1668,1237.5842580795288
1669,1238.1652464866638
1670,1238.745234966278
1671,1239.3232233524323
1672,1239.9012117385864
1673,1240.48020029068
1674,1241.056188583374
1675,1241.6261773109436
1676,1242.2021658420563
1677,1242.784154176712
1678,1243.3711423873901
1679,1243.9621305465698
1680,1244.551118850708
1681,1245.1361072063446
1682,1245.7240953445435
1683,1246.30908370018
1684,1246.888072013855
1685,1247.4730603694916
1686,1248.0600485801697
1687,1248.6470370292664
1688,1249.2330253124237
1689,1249.8200135231018
1690,1250.4050018787384
1691,1250.9919900894165
1692,1251.5829782485962
1693,1252.1789662837982
1694,1252.7769544124603
1695,1253.3699424266815
1696,1253.9629306793213
1697,1254.5519189834595
1698,1255.1379072666168
1699,1255.7288954257965
1700,1256.320883512497
1701,1256.9048719406128
1702,1257.4898600578308
1703,1258.0818483829498
1704,1258.6808364391327
1705,1259.2838242053986
1706,1259.892812013626
1707,1260.5167996883392
1708,1261.1437871456146
1709,1261.7577748298645
1710,1262.3637626171112
1711,1262.9597508907318
1712,1263.5517389774323
1713,1264.139727115631
1714,1264.7337152957916
1715,1265.334703207016
1716,1265.9346914291382
1717,1266.5336792469025
1718,1267.136667251587
1719,1267.7426552772522
1720,1268.354642868042
1721,1268.9746305942535
1722,1269.5946180820465
1723,1270.2076058387756
1724,1270.813593864441
1725,1271.4215817451477
1726,1272.0275695323944
1727,1272.6285574436188
1728,1273.234545469284
1729,1273.845533132553
1730,1274.4545209407806
1731,1275.0625088214874
1732,1275.6704967021942
1733,1276.2754845619202
1734,1276.8764724731445
1735,1277.4684607982635
1736,1278.0564489364624
1737,1278.8469331264496
1738,1279.6374173164368
1739,1280.4604008197784
1740,1281.1613869667053
1741,1281.8133738040924
1742,1282.398362159729
1743,1282.9773507118225
1744,1283.5623388290405
1745,1284.1573269367218
1746,1284.9208116531372
1747,1285.6842963695526
1748,1286.4822804927826
1749,1287.1792666912079
1750,1287.831253528595
1751,1288.4352414608002
1752,1289.0392293930054
1753,1289.648217201233
1754,1290.2592051029205
1755,1290.8841924667358
1756,1291.523179769516
1757,1292.160166978836
1758,1292.78515458107
1759,1293.4031422138214
1760,1294.0231297016144
1761,1294.6381175518036
1762,1295.2521052360535
1763,1295.8790926933289
1764,1296.5230798721313
1765,1297.17906665802
1766,1297.834053516388
1767,1298.4890403747559
1768,1299.145027399063
1769,1299.785014629364
1770,1300.4180018901825
1771,1301.0489892959595
1772,1301.674976825714
1773,1302.3089640140533
1774,1302.9569511413574
1775,1303.6259377002716
1776,1304.3069241046906
1777,1304.9959104061127
1778,1305.6858966350555
1779,1306.3638830184937
1780,1307.01486992836
1781,1307.6498572826385
1782,1308.2798447608948
1783,1308.9068322181702
1784,1309.5398194789886
1785,1310.1978063583374
1786,1310.8757927417755
1787,1311.5487794876099
1788,1312.224765777588
1789,1312.9007523059845
1790,1313.5577392578125
1791,1314.199726343155
1792,1314.8377137184143
1793,1315.4727008342743
1794,1316.106688261032
1795,1316.7396755218506
1796,1317.3816628456116
1797,1318.034649848938
1798,1318.6796369552612
1799,1319.3106241226196
1800,1319.9306118488312
1801,1320.553599357605
1802,1321.1805868148804
1803,1321.806574344635
1804,1322.4475615024567
1805,1323.1045484542847
1806,1323.7485353946686
1807,1324.3875226974487
1808,1325.023509979248
1809,1325.6514973640442
1810,1326.2714850902557
1811,1326.8854727745056
1812,1327.4994604587555
1813,1328.1134481430054
1814,1328.730435848236
1815,1329.3574233055115
1816,1329.9974105358124
1817,1330.6463975906372
1818,1331.3073844909668
1819,1332.000370502472
1820,1332.698356628418
1821,1333.3693430423737
1822,1334.0273299217224
1823,1334.6783170700073
1824,1335.319304227829
1825,1335.9492914676666
1826,1336.578279018402
1827,1337.207266330719
1828,1337.8302540779114
1829,1338.4562413692474
1830,1339.1012284755707
1831,1339.772215127945
1832,1340.4422018527985
1833,1341.0981886386871
1834,1341.7581753730774
1835,1342.4151623249054
1836,1343.0591495037079
1837,1343.7041366100311
1838,1344.3521234989166
1839,1344.988110780716
1840,1345.6330978870392
1841,1346.2900848388672
1842,1346.945071697235
1843,1347.6060585975647
1844,1348.2800450325012
1845,1348.9630312919617
1846,1349.6370179653168
1847,1350.3020045757294
1848,1350.9579916000366
1849,1351.608978509903
1850,1352.2749652862549
1851,1352.96995139122
1852,1353.6739373207092
1853,1354.376923084259
1854,1355.168907403946
1855,1355.8808929920197
1856,1356.5408799648285
1857,1357.193866968155
1858,1358.2118465900421
1859,1359.1018288135529
1860,1359.7368159294128
1861,1360.3438038825989
1862,1361.3277842998505
1863,1362.2197663784027
1864,1362.8587536811829
1865,1363.4737412929535
1866,1364.1257283687592
1867,1364.6952168941498
1868,1365.2647054195404
1869,1366.239686012268
1870,1367.143667936325
1871,1367.9666514396667
1872,1368.7426359653473
1873,1369.4936208724976
1874,1370.1796071529388
1875,1370.8345942497253
1876,1371.5785791873932
1877,1372.394562959671
1878,1373.2845451831818
1879,1374.0665295124054
1880,1374.7875151634216
1881,1375.4515018463135
1882,1376.110488653183
1883,1376.7724754810333
1884,1377.4414620399475
1885,1378.1394481658936
1886,1378.9434320926666
1887,1380.049409866333
1888,1380.9903910160065
1889,1381.7983748912811
1890,1382.497360944748
1891,1383.1763474941254
1892,1383.7903351783752
1893,1384.4173226356506
1894,1385.0633096694946
1895,1385.7542958259583
1896,1386.8992729187012
1897,1387.8442540168762
1898,1388.6912372112274
1899,1389.4402222633362
1900,1390.1612076759338
1901,1390.7861952781677
1902,1391.4341824054718
1903,1392.079169511795
1904,1392.7301564216614
1905,1393.3841433525085
1906,1394.0211305618286
1907,1394.6601178646088
1908,1395.3001050949097
1909,1395.9590919017792
1910,1396.6460781097412
1911,1397.336064338684
1912,1398.0310504436493
1913,1398.722036600113
1914,1399.379023551941
1915,1400.0240106582642
1916,1400.6549980640411
1917,1401.2709856033325
1918,1401.8819735050201
1919,1402.4949612617493
1920,1403.1079490184784
1921,1403.722936630249
1922,1404.3439242839813
1923,1404.9669117927551
1924,1405.5858993530273
1925,1406.2128868103027
1926,1406.8388743400574
1927,1407.464861869812
1928,1408.0978491306305
1929,1408.7518360614777
1930,1409.4058229923248
1931,1410.0398104190826
1932,1410.6847975254059
1933,1411.3427844047546
1934,1411.9857714176178
1935,1412.6167588233948
1936,1413.237746477127
1937,1413.851734161377
1938,1414.4707217216492
1939,1415.0887093544006
1940,1415.7056970596313
1941,1416.316684961319
1942,1416.9316725730896
1943,1417.5606598854065
1944,1418.1966471672058
1945,1418.8306345939636
1946,1419.4656219482422
1947,1420.09760928154
1948,1420.7315967082977
1949,1421.365583896637
1950,1421.996571302414
1951,1422.6265587806702
1952,1423.2505462169647
1953,1423.8655338287354
1954,1424.4805216789246
1955,1425.0885095596313
1956,1425.6924974918365
1957,1426.301485300064
1958,1426.9134731292725
1959,1427.5244607925415
1960,1428.1414484977722
1961,1428.7674360275269
1962,1429.3984234333038
1963,1430.0374104976654
1964,1430.6743977069855
1965,1431.3013854026794
1966,1431.9153730869293
1967,1432.5343606472015
1968,1433.1573481559753
1969,1433.78333568573
1970,1434.4193229675293
1971,1435.0643100738525
1972,1435.7042973041534
1973,1436.3312847614288
1974,1436.9532723426819
1975,1437.5682599544525
1976,1438.1762478351593
1977,1438.7852356433868
1978,1439.3912236690521
1979,1439.988211631775
1980,1440.5891995429993
1981,1441.1981873512268
1982,1441.804175376892
1983,1442.4171631336212
1984,1443.038150548935
1985,1443.6611382961273
1986,1444.282125711441
1987,1444.9021134376526
1988,1445.5241010189056
1989,1446.134088754654
1990,1446.7370767593384
1991,1447.3380646705627
1992,1447.9350526332855
1993,1448.5270409584045
1994,1449.1150290966034
1995,1449.7070174217224
1996,1450.3060052394867
1997,1450.9149932861328
1998,1451.5359807014465
1999,1452.1779680252075
2000,1452.8389546871185
2001,1453.5039412975311
2002,1454.1579282283783
2003,1454.8069152832031
2004,1455.4509024620056
2005,1456.0858898162842
2006,1456.7118773460388
2007,1457.3438646793365
2008,1457.970852136612
2009,1458.583839893341
2010,1459.1918277740479
2011,1459.7988154888153
2012,1460.4058034420013
2013,1461.0107913017273
2014,1461.6257791519165
2015,1462.258766412735
2016,1462.9017534255981
2017,1463.5547404289246
2018,1464.2257270812988
2019,1464.9067134857178
2020,1465.5727000236511
2021,1466.2346868515015
2022,1466.8926737308502
2023,1467.5366609096527
2024,1468.1746480464935
2025,1468.8056354522705
2026,1469.4276230335236
2027,1470.047610759735
2028,1470.6685981750488
2029,1471.2905857563019
2030,1471.9195733070374
2031,1472.5565605163574
2032,1473.2135474681854
2033,1473.8755340576172
2034,1474.5285210609436
2035,1475.1805081367493
2036,1475.8204953670502
2037,1476.452482700348
2038,1477.0794701576233
2039,1477.696457862854
2040,1478.3204452991486
2041,1478.9504327774048
2042,1479.5724203586578
2043,1480.1924078464508
2044,1480.8163952827454
2045,1481.4433827400208
2046,1482.064370393753
2047,1482.6923577785492
2048,1483.3273451328278
2049,1483.9653325080872
2050,1484.614319562912
2051,1485.2863059043884
2052,1485.9652924537659
2053,1486.637279033661
2054,1487.2932658195496
2055,1487.9232532978058
2056,1488.5372409820557
2057,1489.1502287387848
2058,1489.7682163715363
2059,1490.39120388031
2060,1491.0261912345886
2061,1491.6901779174805
2062,1492.369164466858
2063,1493.0351510047913
2064,1493.6831381320953
2065,1494.30712556839
2066,1494.922113418579
2067,1495.5391011238098
2068,1496.1540887355804
2069,1496.7670764923096
2070,1497.3810641765594
2071,1498.001051902771
2072,1498.623039484024
2073,1499.2410271167755
2074,1499.8630146980286
2075,1500.4820022583008
2076,1501.0929899215698
2077,1501.7069778442383
2078,1502.3199653625488
2079,1502.925953388214
2080,1503.5279412269592
2081,1504.1309292316437
2082,1504.7359170913696
2083,1505.332905292511
2084,1505.928893327713
2085,1506.5228815078735
2086,1507.1068696975708
2087,1507.6938581466675
2088,1508.2848463058472
2089,1508.8808343410492
2090,1509.4748225212097
2091,1510.069810628891
2092,1510.6697986125946
2093,1511.2487869262695
2094,1511.8117756843567
2095,1512.3697645664215
2096,1512.9237534999847
2097,1513.4737424850464
2098,1514.032731294632
2099,1514.6157195568085
2100,1515.2527070045471
2101,1515.9196934700012
2102,1516.5466811656952
2103,1517.1506690979004
2104,1517.7386572360992
2105,1518.3196456432343
2106,1518.8986339569092
2107,1519.471622467041
2108,1520.0456111431122
2109,1520.6255996227264
2110,1521.2095878124237
2111,1521.798576116562
2112,1522.391564130783
2113,1522.9795525074005
2114,1523.5635406970978
2115,1524.1545288562775
2116,1524.7475171089172
2117,1525.3335053920746
2118,1525.9204936027527
2119,1526.5094819068909
2120,1527.098470211029
2121,1527.6854584217072
2122,1528.275446653366
2123,1528.8624348640442
2124,1529.4554228782654
2125,1530.0554111003876
2126,1530.6673986911774
2127,1531.2833864688873
2128,1531.9043741226196
2129,1532.535361289978
2130,1533.1693487167358
2131,1533.8043360710144
2132,1534.439323425293
2133,1535.0713107585907
2134,1535.7022981643677
2135,1536.329285621643
2136,1536.95827293396
2137,1537.5932602882385
2138,1538.2252476215363
2139,1538.8562350273132
2140,1539.488222360611
2141,1540.1282095909119
2142,1540.791196346283
2143,1541.478182554245
2144,1542.1551690101624
2145,1542.8321554660797
2146,1543.5131418704987
2147,1544.1851284503937
2148,1544.8491151332855
2149,1545.5031020641327
2150,1546.1530890464783
2151,1546.7990763187408
2152,1547.4490633010864
2153,1548.1020503044128
2154,1548.7410373687744
2155,1549.3830246925354
2156,1550.039011478424
2157,1550.7019982337952
2158,1551.374984741211
2159,1552.0799705982208
2160,1552.7939562797546
2161,1553.4659428596497
2162,1554.1359295845032
2163,1554.8049161434174
2164,1555.4489033222198
2165,1556.0908904075623
2166,1556.7108781337738
2167,1557.3338656425476
2168,1557.969852924347
2169,1558.630839586258
2170,1559.3068261146545
2171,1559.9578132629395
2172,1560.6008002758026
2173,1561.2417874336243
2174,1561.878774881363
2175,1562.5107622146606
2176,1563.1477494239807
2177,1563.7967364788055
2178,1564.4597232341766
2179,1565.1297097206116
2180,1565.797696352005
2181,1566.4746828079224
2182,1567.1346697807312
2183,1567.7806568145752
2184,1568.4336438179016
2185,1569.0956304073334
2186,1569.747617483139
2187,1570.3946044445038
2188,1571.0545914173126
2189,1571.7165780067444
2190,1572.3675651550293
2191,1573.0215520858765
2192,1573.68953871727
2193,1574.3465254306793
2194,1575.0065124034882
2195,1575.6694991588593
2196,1576.3274857997894
2197,1576.973473072052
2198,1577.6224601268768
2199,1578.271446943283
2200,1578.9144341945648
2201,1579.5564212799072
2202,1580.214408159256
2203,1580.888394832611
2204,1581.5713810920715
2205,1582.2623672485352
2206,1582.9593532085419
2207,1583.648339509964
2208,1584.3093264102936
2209,1584.9593133926392
2210,1585.6043004989624
2211,1586.2462875843048
2212,1586.8832747936249
2213,1587.522262096405
2214,1588.1632492542267
2215,1588.816236257553
2216,1589.4762229919434
2217,1590.128210067749
2218,1590.7921967506409
2219,1591.4541835784912
2220,1592.118170261383
2221,1592.8121564388275
2222,1593.5681412220001
2223,1594.2381279468536
2224,1594.904114484787
2225,1595.5661013126373
2226,1596.2100884914398
2227,1596.8390758037567
2228,1597.4820630550385
2229,1598.1420497894287
2230,1598.904034614563
2231,1599.838015794754
2232,1600.7219982147217
2233,1601.5319819450378
2234,1602.255967617035
2235,1602.9349539279938
2236,1603.5879409313202
2237,1604.245927810669
2238,1604.9159142971039
2239,1605.5679013729095
2240,1606.1908888816833
2241,1606.807876586914
2242,1607.4268641471863
2243,1608.04985165596
2244,1608.6738393306732
2245,1609.3018267154694
2246,1609.9378139972687
2247,1610.5708012580872
2248,1611.213788509369
2249,1611.8757753372192
2250,1612.5517616271973
2251,1613.2227482795715
2252,1613.899734735489
2253,1614.5827209949493
2254,1615.2617075443268
2255,1615.9276943206787
2256,1616.5866811275482
2257,1617.2346680164337
2258,1617.8826551437378
2259,1618.5376420021057
2260,1619.1796290874481
2261,1619.8076167106628
2262,1620.4456038475037
2263,1621.0845911502838
2264,1621.7285783290863
2265,1622.393564939499
2266,1623.097550868988
2267,1623.8725354671478
2268,1624.556521654129
2269,1625.2425079345703
2270,1625.92649435997
2271,1626.5924808979034
2272,1627.2614676952362
2273,1627.934454202652
2274,1628.604440689087
2275,1629.2724273204803
2276,1629.9534137248993
2277,1630.6573996543884
2278,1631.342386007309
2279,1632.0043728351593
2280,1632.5778613090515
2281,1633.1513497829437
2282,1634.063331604004
2283,1634.867315530777
2284,1635.6073007583618
2285,1636.3212864398956
2286,1636.9642736911774
2287,1637.781257390976
2288,1638.6942391395569
2289,1639.6572198867798
2290,1640.6212005615234
2291,1641.5391821861267
2292,1642.3651657104492
2293,1643.146150112152
2294,1643.860135793686
2295,1644.5661215782166
2296,1645.184109210968
2297,1645.7860972881317
2298,1646.3840854167938
2299,1646.9980731010437
2300,1647.6460599899292
2301,1648.3170466423035
2302,1648.9880332946777
2303,1649.6410202980042
2304,1650.285007238388
2305,1650.924994468689
2306,1651.56698179245
2307,1652.2169687747955
2308,1652.8509559631348
2309,1653.4699437618256
2310,1654.102931022644
2311,1654.7789175510406
2312,1655.4889032840729
2313,1656.1698896884918
2314,1656.8348762989044
2315,1657.478863477707
2316,1658.1168508529663
2317,1658.728838443756
2318,1659.3308265209198
2319,1659.9388144016266
2320,1660.5528020858765
2321,1661.161789894104
2322,1661.7857773303986
2323,1662.4337644577026
2324,1663.1027510166168
2325,1663.8047370910645
2326,1664.5757217407227
2327,1665.2697076797485
2328,1665.9346945285797
2329,1666.5746817588806
2330,1667.2046689987183
2331,1667.8296566009521
2332,1668.4506442546844
2333,1669.0796315670013
2334,1669.7246186733246
2335,1670.3726058006287
2336,1671.025592803955
2337,1671.6615800857544
2338,1672.2725677490234
2339,1672.8715558052063
2340,1673.4635438919067
2341,1674.049532175064
2342,1674.6325206756592
2343,1675.2215087413788
2344,1675.8094971179962
2345,1676.4014852046967
2346,1676.9924733638763
2347,1677.5824615955353
2348,1678.1694498062134
2349,1678.7514381408691
2350,1679.3314266204834
2351,1679.9134149551392
2352,1680.4914033412933
2353,1681.067391872406
2354,1681.6463804244995
2355,1682.2363686561584
2356,1682.8313567638397
2357,1683.4283447265625
2358,1684.028332710266
2359,1684.633320569992
2360,1685.243308544159
2361,1685.860296010971
2362,1686.4772837162018
2363,1687.0802717208862
2364,1687.6742599010468
2365,1688.2652480602264
2366,1688.8552362918854
2367,1689.4412245750427
2368,1690.0242128372192
2369,1690.6122012138367
2370,1691.204189300537
2371,1691.7931776046753
2372,1692.375165939331
2373,1692.9551541805267
2374,1693.537142753601
2375,1694.1131310462952
2376,1694.682119846344
2377,1695.2511084079742
2378,1695.8280968666077
2379,1696.4020853042603
2380,1696.9730739593506
2381,1697.5430624485016
2382,1698.122051000595
2383,1698.7080392837524
2384,1699.293027639389
2385,1699.8770158290863
2386,1700.4570043087006
2387,1701.0369927883148
2388,1701.614981174469
2389,1702.18496966362
2390,1702.750958442688
2391,1703.3159470558167
2392,1703.8889355659485
2393,1704.467924118042
2394,1705.0459125041962
2395,1705.9648942947388
2396,1706.8198771476746
2397,1707.4188652038574
2398,1707.9878537654877
2399,1708.553842306137
2400,1709.1158311367035
2401,1710.0308129787445
2402,1710.8097972869873
2403,1711.3787858486176
2404,1712.2937676906586
2405,1713.0427527427673
2406,1713.613741159439
2407,1714.1677300930023
2408,1714.7237191200256
2409,1715.2877078056335
2410,1715.8576962947845
2411,1716.4326848983765
2412,1717.0166733264923
2413,1717.6096613407135
2414,1718.1996495723724
2415,1718.7836380004883
2416,1719.3686261177063
2417,1719.9496145248413
2418,1720.5306029319763
2419,1721.1115913391113
2420,1721.685579776764
2421,1722.257568359375
2422,1722.8205571174622
2423,1723.3755462169647
2424,1723.9235351085663
2425,1724.4685242176056
2426,1725.0075135231018
2427,1725.5455026626587
2428,1726.084491968155
2429,1726.6234812736511
2430,1727.1584703922272
2431,1727.6914598941803
2432,1728.2244491577148
2433,1728.7534384727478
2434,1729.2794280052185
2435,1729.8074176311493
2436,1730.3344070911407
2437,1730.8613965511322
2438,1731.3903858661652
2439,1731.9163753986359
2440,1732.4413647651672
2441,1732.967354297638
2442,1733.4943437576294
2443,1734.0193333625793
2444,1734.5463228225708
2445,1735.0713121891022
2446,1735.5913019180298
2447,1736.1082916259766
2448,1736.624281167984
2449,1737.1452708244324
2450,1737.6662604808807
2451,1738.1892499923706
2452,1738.708239555359
2453,1739.2272291183472
2454,1739.7422189712524
2455,1740.2572085857391
2456,1740.7731983661652
2457,1741.2891879081726
2458,1741.8021776676178
2459,1742.315167427063
2460,1742.829157114029
2461,1743.3441469669342
2462,1743.8641364574432
2463,1744.3881261348724
2464,1744.912115573883
2465,1745.4341051578522
2466,1745.9610946178436
2467,1746.486083984375
2468,1747.0120735168457
2469,1747.5410630702972
2470,1748.0750522613525
2471,1748.6120414733887
2472,1749.1520307064056
2473,1749.6950199604034
2474,1750.2410089969635
2475,1750.7909979820251
2476,1751.3429870605469
2477,1751.8929760456085
2478,1752.4449648857117
2479,1752.9949538707733
2480,1753.5439429283142
2481,1754.0919320583344
2482,1754.6369211673737
2483,1755.181910276413
2484,1755.7238993644714
2485,1756.26588845253
2486,1756.8058776855469
2487,1757.347867012024
2488,1757.8948559761047
2489,1758.4478449821472
2490,1759.0068337917328
2491,1759.560822725296
2492,1760.1148116588593
2493,1760.66180062294
2494,1761.2097897529602
2495,1761.7517788410187
2496,1762.2917680740356
2497,1762.8317573070526
2498,1763.3697464466095
2499,1763.9127357006073
2500,1764.4557247161865
2501,1764.999713897705
2502,1765.5467031002045
2503,1766.0956919193268
2504,1766.6426811218262
2505,1767.183670282364
2506,1767.7276594638824
2507,1768.2676486968994
2508,1768.8056378364563
2509,1769.3526270389557
2510,1769.901615858078
2511,1770.450604915619
2512,1770.9945940971375
2513,1771.5395832061768
2514,1772.087572336197
2515,1772.6435611248016
2516,1773.2105498313904
2517,1773.7785384654999
2518,1774.3485269546509
2519,1774.9215157032013
2520,1775.4955041408539
2521,1776.073492527008
2522,1776.657480955124
2523,1777.244469165802
2524,1777.8324573040009
2525,1778.4224455356598
2526,1779.011433839798
2527,1779.5974221229553
2528,1780.182410478592
2529,1780.76939868927
2530,1781.359386920929
2531,1781.9473750591278
2532,1782.5333633422852
2533,1783.1183516979218
2534,1783.70734000206
2535,1784.2993280887604
2536,1784.8953161239624
2537,1785.4963042736053
2538,1786.0992920398712
2539,1786.6952803134918
2540,1787.2812685966492
2541,1787.8552570343018
2542,1788.424245595932
2543,1788.9932341575623
2544,1789.5612227916718
2545,1790.1282114982605
2546,1790.6892004013062
2547,1791.2461891174316
2548,1791.8041779994965
2549,1792.3561670780182
2550,1792.9081559181213
2551,1793.4561450481415
2552,1794.0011341571808
2553,1794.5471231937408
2554,1795.0971121788025
2555,1795.6521010398865
2556,1796.2120900154114
2557,1796.7740786075592
2558,1797.3380675315857
2559,1797.907056093216
2560,1798.479044675827
2561,1799.0470333099365
2562,1799.6180219650269
2563,1800.1910104751587
2564,1800.7699987888336
2565,1801.3519871234894
2566,1801.9309756755829
2567,1802.5019640922546
2568,1803.0709528923035
2569,1803.6409413814545
2570,1804.2099299430847
2571,1804.774918794632
2572,1805.3349075317383
2573,1805.8988962173462
2574,1806.4728848934174
2575,1807.04687333107
2576,1807.6168620586395
2577,1808.1868505477905
2578,1808.748839378357
2579,1809.3018281459808
2580,1809.8478174209595
2581,1810.3988063335419
2582,1810.941795349121
2583,1811.4762847423553
2584,1812.0107741355896
2585,1812.5427634716034
2586,1813.0797526836395
2587,1813.6147420406342
2588,1814.1457314491272
2589,1814.6767208576202
2590,1815.2107100486755
2591,1815.7536993026733
2592,1816.301688194275
2593,1816.8536772727966
2594,1817.4096660614014
2595,1817.9676549434662
2596,1818.5296437740326
2597,1819.0946323871613
2598,1819.6596212387085
2599,1820.2266099452972
2600,1820.8005983829498
2601,1821.378586769104
2602,1821.9565751552582
2603,1822.534563779831
2604,1823.1115522384644
2605,1823.685540676117
2606,1824.2495293617249
2607,1824.8085181713104
2608,1825.3565073013306
2609,1825.887996673584
2610,1826.4194860458374
2611,1826.9514753818512
2612,1827.4844646453857
2613,1828.0174541473389
2614,1828.5504434108734
2615,1829.0814328193665
2616,1829.6124222278595
2617,1830.1404116153717
2618,1830.6744010448456
2619,1831.2043902873993
2620,1831.739379644394
2621,1832.2753689289093
2622,1832.8123581409454
2623,1833.3523473739624
2624,1833.8993365764618
2625,1834.4503254890442
2626,1835.0023143291473
2627,1835.5583033561707
2628,1836.112292289734
2629,1836.6692810058594
2630,1837.224270105362
2631,1837.7832589149475
2632,1838.3472476005554
2633,1838.9102363586426
2634,1839.4742250442505
2635,1840.0402138233185
2636,1840.6072022914886
2637,1841.1771910190582
2638,1841.75017952919
2639,1842.3221681118011
2640,1842.8881568908691
2641,1843.450145483017
2642,1844.0141341686249
2643,1844.5781230926514
2644,1845.1441116333008
2645,1845.707100391388
2646,1846.2750890254974
2647,1846.8460776805878
2648,1847.417066335678
2649,1847.9850549697876
2650,1848.5580434799194
2651,1849.1350319385529
2652,1849.713020324707
2653,1850.3010087013245
2654,1850.9089963436127
2655,1851.5199842453003
2656,1852.1319720745087
2657,1852.7499597072601
2658,1853.3689472675323
2659,1853.9869349002838
2660,1854.596922636032
2661,1855.2119104862213
2662,1855.8258981704712
2663,1856.433886051178
2664,1857.0438737869263
2665,1857.6508617401123
2666,1858.2648494243622
2667,1858.8808369636536
2668,1859.489824771881
2669,1860.0848128795624
2670,1860.6708011627197
2671,1861.2587895393372
2672,1861.8567776679993
2673,1862.4597654342651
2674,1863.0627534389496
2675,1863.6677412986755
2676,1864.2697293758392
2677,1864.8767170906067
2678,1865.482705116272
2679,1866.0866930484772
2680,1866.6796810626984
2681,1867.275669336319
2682,1867.877657175064
2683,1868.4896450042725
2684,1869.1096324920654
2685,1869.73562002182
2686,1870.3616075515747
2687,1870.9875950813293
2688,1871.5955829620361
2689,1872.1905710697174
2690,1872.7805590629578
2691,1873.375547170639
2692,1873.9715354442596
2693,1874.5735232830048
2694,1875.1875109672546
2695,1875.8184983730316
2696,1876.4674854278564
2697,1877.1234724521637
2698,1877.7884590625763
2699,1878.4434459209442
2700,1879.0784332752228
2701,1879.708420753479
2702,1880.3264083862305
2703,1880.9323961734772
2704,1881.5283842086792
2705,1882.1223723888397
2706,1882.7133605480194
2707,1883.3023488521576
2708,1883.9013369083405
2709,1884.508324623108
2710,1885.1133127212524
2711,1885.7253003120422
2712,1886.3402881622314
2713,1886.9532759189606
2714,1887.5612635612488
2715,1888.1732513904572
2716,1888.7802393436432
2717,1889.379227399826
2718,1889.969215631485
2719,1890.54820394516
2720,1891.1211924552917
2721,1891.6871812343597
2722,1892.2551698684692
2723,1892.8181586265564
2724,1893.3801474571228
2725,1893.9361362457275
2726,1894.5001249313354
2727,1895.0661137104034
2728,1895.6331024169922
2729,1896.2010910511017
2730,1896.776079416275
2731,1897.3640677928925
2732,1897.9610557556152
2733,1898.5550439357758
2734,1899.1470320224762
2735,1899.7350203990936
2736,1900.319008588791
2737,1900.8979971408844
2738,1901.4769854545593
2739,1902.0559740066528
2740,1902.6359622478485
2741,1903.2189507484436
2742,1903.8069388866425
2743,1904.3979270458221
2744,1904.9999151229858
2745,1905.6059029102325
2746,1906.2268905639648
2747,1906.8568778038025
2748,1907.4778654575348
2749,1908.0888533592224
2750,1908.6928412914276
2751,1909.287829399109
2752,1909.8708176612854
2753,1910.4408061504364
2754,1911.0097949504852
2755,1911.582783460617
2756,1912.1627719402313
2757,1912.742760181427
2758,1913.334248304367
2759,1913.9257366657257
2760,1914.5287244319916
2761,1915.1377124786377
2762,1915.7546999454498
2763,1916.3946871757507
2764,1917.0616738796234
2765,1917.7486600875854
2766,1918.4026470184326
2767,1919.0536341667175
2768,1919.7166209220886
2769,1920.3606078624725
2770,1920.9865953922272
2771,1921.620582818985
2772,1922.2505700588226
2773,1922.8875575065613
2774,1923.5685439109802
2775,1924.5595240592957
2776,1925.6545021533966
2777,1926.5864834785461
2778,1927.4164669513702
2779,1928.1514523029327
2780,1928.8974373340607
2781,1929.613422870636
2782,1930.4484062194824
2783,1931.4743857383728
2784,1932.5483644008636
2785,1933.5563440322876
2786,1934.5303246974945
2787,1935.4053072929382
2788,1936.1942913532257
2789,1936.9612760543823
2790,1937.6922614574432
2791,1938.3572480678558
2792,1939.1252326965332
2793,1939.8932175636292
2794,1940.5672039985657
2795,1941.7181808948517
2796,1942.7861595153809
2797,1943.5791437625885
2798,1944.2591302394867
2799,1944.8811178207397
2800,1945.4951055049896
2801,1946.1120932102203
2802,1946.7540802955627
2803,1947.4150669574738
2804,1948.0870535373688
2805,1949.2780299186707
2806,1950.334008693695
2807,1951.2139911651611
2808,1952.0089752674103
2809,1952.7639601230621
2810,1953.4149470329285
2811,1954.060934305191
2812,1954.7559204101562
2813,1955.7709000110626
2814,1957.0188751220703
2815,1958.0668542385101
2816,1959.0228350162506
2817,1959.8828177452087
2818,1960.6618022918701
2819,1961.4457864761353
2820,1962.2097713947296
2821,1963.1137533187866
2822,1964.1827318668365
2823,1965.2957096099854
2824,1966.4146871566772
2825,1967.3796679973602
2826,1968.3046493530273
2827,1969.1266329288483
2828,1969.9056174755096
2829,1970.638602733612
2830,1971.380588054657
2831,1972.047574520111
2832,1973.2465505599976
2833,1974.4175271987915
2834,1975.434506893158
2835,1976.344488620758
2836,1977.1704721450806
2837,1977.9284570217133
2838,1978.6874418258667
2839,1979.3604283332825
2840,1980.0674142837524
2841,1981.3433887958527
2842,1982.486366033554
2843,1983.4713461399078
2844,1984.3673284053802
2845,1985.1743121147156
2846,1985.9512965679169
2847,1986.5982837677002
2848,1987.2582705020905
2849,1987.9312570095062
2850,1989.1842319965363
2851,1990.2942097187042
2852,1991.2561905384064
2853,1992.0911738872528
2854,1992.8141593933105
2855,1993.5111455917358
2856,1994.1461327075958
2857,1994.8141195774078
2858,1995.4991056919098
2859,1996.734081029892
2860,1997.8030598163605
2861,1998.7870399951935
2862,1999.6600224971771
2863,2000.4150075912476
2864,2001.1679923534393
2865,2001.7929799556732
2866,2002.4629664421082
2867,2003.3989479541779
2868,2004.6769223213196
2869,2005.802899837494
2870,2006.7858800888062
2871,2007.677862405777
2872,2008.4898459911346
2873,2009.3008298873901
2874,2010.031815290451
2875,2010.8027997016907
2876,2011.5037858486176
2877,2012.752760887146
2878,2013.9717364311218
2879,2014.9587166309357
2880,2015.828699350357
2881,2016.5966839790344
2882,2017.3556687831879
2883,2017.9876561164856
2884,2018.6536428928375
2885,2019.3336293697357
2886,2020.019615650177
2887,2020.7056019306183
2888,2021.8375792503357
2889,2022.7605607509613
2890,2023.5265455245972
2891,2024.1715326309204
2892,2024.7775204181671
2893,2025.361508846283
2894,2025.9564969539642
2895,2026.5584847927094
2896,2027.169472694397
2897,2027.7764604091644
2898,2028.4104478359222
2899,2029.0944340229034
2900,2029.8104197978973
2901,2030.4644067287445
2902,2031.0983941555023
2903,2031.7203817367554
2904,2032.3223695755005
2905,2032.9263575077057
2906,2033.5323452949524
2907,2034.1383333206177
2908,2034.75732088089
2909,2035.3843083381653
2910,2036.0302953720093
2911,2036.6762826442719
2912,2037.3082699775696
2913,2037.9312574863434
2914,2038.5652446746826
2915,2039.1952321529388
2916,2039.832219362259
2917,2040.4672067165375
2918,2041.0891942977905
2919,2041.7251815795898
2920,2042.379168510437
2921,2043.0351555347443
2922,2043.70814204216
2923,2044.3761286735535
2924,2045.0291156768799
2925,2045.672102689743
2926,2046.3040900230408
2927,2046.923077583313
2928,2047.541065454483
2929,2048.1650528907776
2930,2048.7940402030945
2931,2049.4160277843475
2932,2050.0240156650543
2933,2050.624003648758
2934,2051.222991704941
2935,2051.817979812622
2936,2052.416967868805
2937,2053.0089559555054
2938,2053.61194396019
2939,2054.232931613922
2940,2054.8689188957214
2941,2055.507905960083
2942,2056.158893108368
2943,2056.8208799362183
2944,2057.48486661911
2945,2058.1678528785706
2946,2058.8318395614624
2947,2059.4708268642426
2948,2060.0938143730164
2949,2060.6978023052216
2950,2061.291790485382
2951,2061.8837785720825
2952,2062.4767668247223
2953,2063.0707547664642
2954,2063.6757428646088
2955,2064.292730331421
2956,2064.9157180786133
2957,2065.5407054424286
2958,2066.1746928691864
2959,2066.806680202484
2960,2067.444667339325
2961,2068.0886545181274
2962,2068.7426414489746
2963,2069.4006283283234
2964,2070.0706148147583
2965,2070.7586011886597
2966,2071.4375874996185
2967,2072.083574771881
2968,2072.7165620326996
2969,2073.335549592972
2970,2073.956537246704
2971,2074.581524848938
2972,2075.19851231575
2973,2075.831499814987
2974,2076.512486219406
2975,2077.6474635601044
2976,2078.785440683365
2977,2079.8024203777313
2978,2080.672402858734
2979,2081.471386909485
2980,2082.198372364044
2981,2082.929357767105
2982,2083.677342891693
2983,2084.995316505432
2984,2086.160293340683
2985,2087.1602733135223
2986,2088.100254535675
2987,2088.9992365837097
2988,2089.874218940735
2989,2090.839199781418
2990,2092.1081743240356
2991,2093.237151861191
2992,2094.3301298618317
2993,2095.2961106300354
2994,2096.1790928840637
2995,2097.0190761089325
2996,2097.8670592308044
2997,2098.7680411338806
2998,2099.750021457672
2999,2100.6760029792786
3000,2101.580985069275
3001,2102.422968149185
3002,2103.1679532527924
3003,2103.8779389858246
3004,2104.5379259586334
3005,2105.1929128170013
3006,2105.877899169922
3007,2106.5848848819733
3008,2107.326870203018
3009,2108.0538556575775
3010,2108.735841989517
3011,2109.417828321457
3012,2110.1168143749237
3013,2110.7838010787964
3014,2111.4587874412537
3015,2112.1317739486694
3016,2112.79576086998
3017,2113.482747077942
3018,2114.1807329654694
3019,2114.897718667984
3020,2115.5977046489716
3021,2116.27969121933
3022,2116.968177318573
3023,2117.6566636562347
3024,2118.7526416778564
3025,2119.7306220531464
3026,2120.5936048030853
3027,2121.359589576721
3028,2122.1285741329193
3029,2122.842559814453
3030,2123.54154586792
3031,2124.329530239105
3032,2125.0320160388947
3033,2125.7345020771027
3034,2126.9294781684875
3035,2128.0334560871124
3036,2129.0114364624023
3037,2129.9264183044434
3038,2130.764401435852
3039,2131.5823850631714
3040,2132.451367855072
3041,2133.5473458766937
3042,2134.826320409775
3043,2135.9452979564667
3044,2136.889279127121
3045,2137.723262310028
3046,2138.5402460098267
3047,2139.3332302570343
3048,2140.1512138843536
3049,2141.0401961803436
3050,2142.0501759052277
3051,2143.123154401779
3052,2144.1491339206696
3053,2145.0651156902313
3054,2145.929098367691
3055,2146.710082769394
3056,2147.496067047119
3057,2148.257051706314
3058,2149.0500359535217
3059,2149.886019229889
3060,2150.996997117996
3061,2152.0449759960175
3062,2152.9509580135345
3063,2153.7699415683746
3064,2154.488927125931
3065,2155.21591258049
3066,2155.8598997592926
3067,2156.556885957718
3068,2157.2398722171783
3069,2157.9588577747345
3070,2158.968837738037
3071,2160.052815914154
3072,2160.942798137665
3073,2161.716782808304
3074,2162.4487681388855
3075,2163.0827553272247
3076,2163.7347424030304
3077,2164.3887293338776
3078,2165.073715686798
3079,2165.7997012138367
3080,2166.6376843452454
3081,2167.634664297104
3082,2168.575645685196
3083,2169.3996291160583
3084,2170.160614013672
3085,2170.803601026535
3086,2171.45258808136
3087,2172.0925753116608
3088,2172.7255625724792
3089,2173.36554980278
3090,2174.0125370025635
3091,2174.66352391243
3092,2175.3135108947754
3093,2175.980497598648
3094,2176.6494841575623
3095,2177.310471057892
3096,2177.9654579162598
3097,2178.6324446201324
3098,2179.3074309825897
3099,2179.9744176864624
3100,2180.6384043693542
3101,2181.29039144516
3102,2181.9283785820007
3103,2182.567365884781
3104,2183.197353363037
3105,2183.8223407268524
3106,2184.4363284111023
3107,2185.061316013336
3108,2185.6893033981323
3109,2186.3202908039093
3110,2186.9682779312134
3111,2187.6192648410797
3112,2188.270251750946
3113,2188.928238630295
3114,2189.5872254371643
3115,2190.2342126369476
3116,2190.869199991226
3117,2191.5031871795654
3118,2192.141174554825
3119,2192.775161743164
3120,2193.407149076462
3121,2194.0481362342834
3122,2194.700123310089
3123,2195.3611102104187
3124,2196.0430965423584
3125,2196.7270827293396
3126,2197.4020693302155
3127,2198.069056034088
3128,2198.740042448044
3129,2199.4040293693542
3130,2200.0670161247253
3131,2200.7280027866364
3132,2201.3759899139404
3133,2202.0119771957397
3134,2202.64896440506
3135,2203.2989513874054
3136,2203.942938566208
3137,2204.5989253520966
3138,2205.2629120349884
3139,2205.9138991832733
3140,2206.5658860206604
3141,2207.2168731689453
3142,2207.8618602752686
3143,2208.5058472156525
3144,2209.149834394455
3145,2209.794821500778
3146,2210.4358086586
3147,2211.080795764923
3148,2211.737782716751
3149,2212.4067692756653
3150,2213.082755804062
3151,2213.7647421360016
3152,2214.452728509903
3153,2215.1417145729065
3154,2215.820701122284
3155,2216.498687505722
3156,2217.1686742305756
3157,2217.8376607894897
3158,2218.5186471939087
3159,2219.203633546829
3160,2219.885619878769
3161,2220.555606365204
3162,2221.2145931720734
3163,2221.8795800209045
3164,2222.556566476822
3165,2223.2445526123047
3166,2223.9345388412476
3167,2224.6385247707367
3168,2225.3535103797913
3169,2226.0594964027405
3170,2226.7584824562073
3171,2227.44646859169
3172,2228.1264550685883
3173,2228.8134412765503
3174,2229.5004274845123
3175,2230.170414209366
3176,2230.8444006443024
3177,2231.5253870487213
3178,2232.216373205185
3179,2232.908359527588
3180,2233.6203451156616
3181,2234.3363308906555
3182,2235.02831697464
3183,2235.7213032245636
3184,2236.398289680481
3185,2237.0662763118744
3186,2237.7442626953125
3187,2238.440248966217
3188,2239.157234430313
3189,2239.849220752716
3190,2240.5382068157196
3191,2241.2121934890747
3192,2241.871180295944
3193,2242.5541665554047
3194,2243.2531526088715
3195,2243.9511387348175
3196,2244.645124912262
3197,2245.3351109027863
3198,2246.021097421646
3199,2246.7140834331512
3200,2247.428069114685
3201,2248.1650545597076
3202,2248.948038816452
3203,2249.691023826599
3204,2250.400009870529
3205,2251.1149954795837
3206,2251.816981315613
3207,2252.5159673690796
3208,2253.29195189476
3209,2254.033937215805
3210,2254.7739222049713
3211,2255.52490735054
3212,2256.2498927116394
3213,2256.9808781147003
3214,2257.721863269806
3215,2258.4568486213684
3216,2259.170834302902
3217,2259.888820171356
3218,2260.629805326462
3219,2261.415789604187
3220,2262.1407749652863
3221,2262.871760368347
3222,2263.6017458438873
3223,2264.397729873657
3224,2265.15571475029
3225,2265.886700153351
3226,2266.61368560791
3227,2267.3236713409424
3228,2268.033657312393
3229,2268.7506427764893
3230,2269.4736285209656
3231,2270.1856141090393
3232,2270.8886001110077
3233,2271.6135857105255
3234,2272.352570772171
3235,2273.1375551223755
3236,2273.9175395965576
3237,2274.703523874283
3238,2275.4215095043182
3239,2276.137495279312
3240,2276.840481042862
3241,2277.5454671382904
3242,2278.2744524478912
3243,2279.00043797493
3244,2279.7174236774445
3245,2280.434409379959
3246,2281.1353952884674
3247,2281.8123817443848
3248,2282.5023679733276
3249,2283.211353778839
3250,2283.9283394813538
3251,2284.6343252658844
3252,2285.334311246872
3253,2286.0272974967957
3254,2286.728283405304
3255,2287.432269334793
3256,2288.136255264282
3257,2288.847241163254
3258,2289.560226917267
3259,2290.2632129192352
3260,2290.9711985588074
3261,2291.6681847572327
3262,2292.357171058655
3263,2293.0531570911407
3264,2293.754142999649
3265,2294.476128578186
3266,2295.198114156723
3267,2295.888100385666
3268,2296.566086769104
3269,2297.2360734939575
3270,2297.922059774399
3271,2298.6120460033417
3272,2299.2990322113037
3273,2299.991018295288
3274,2300.696004152298
3275,2301.425989627838
3276,2302.148975133896
3277,2302.8399612903595
3278,2303.5319476127625
3279,2304.2099339962006
3280,2304.8679208755493
3281,2305.5399074554443
3282,2306.2168939113617
3283,2306.893880367279
3284,2307.5758666992188
3285,2308.2748527526855
3286,2308.959839105606
3287,2309.6338255405426
3288,2310.3218116760254
3289,2311.0097980499268
3290,2311.6907844543457
3291,2312.383770465851
3292,2313.075756788254
3293,2313.753743171692
3294,2314.4327297210693
3295,2315.1337156295776
3296,2315.8317017555237
3297,2316.515687942505
3298,2317.195674419403
3299,2317.8626611232758
3300,2318.534647703171
3301,2319.1966342926025
3302,2319.8686208724976
3303,2320.5416073799133
3304,2321.211594104767
3305,2321.9025802612305
3306,2322.6005663871765
3307,2323.2945523262024
3308,2323.9955384731293
3309,2324.695524454117
3310,2325.387510538101
3311,2326.0764968395233
3312,2326.7534832954407
3313,2327.431469678879
3314,2328.1334557533264
3315,2328.8494412899017
3316,2329.5664269924164
3317,2330.292412519455
3318,2331.002398252487
3319,2331.7203838825226
3320,2332.4543693065643
3321,2333.179354906082
3322,2333.908340215683
3323,2334.6463255882263
3324,2335.366311073303
3325,2336.074296951294
3326,2336.787282705307
3327,2337.5102682113647
3328,2338.2352538108826
3329,2339.032237768173
3330,2339.8112223148346
3331,2340.5282080173492
3332,2341.25719332695
3333,2341.973179101944
3334,2342.6811649799347
3335,2343.456149339676
3336,2344.7341237068176
3337,2345.7961025238037
3338,2346.6860847473145
3339,2347.5140681266785
3340,2348.2890527248383
3341,2349.047037601471
3342,2349.802022457123
3343,2350.6030066013336
3344,2351.535987854004
3345,2352.59596657753
3346,2353.650945663452
3347,2354.6249260902405
3348,2355.532907962799
3349,2356.3568913936615
3350,2357.132875919342
3351,2357.8598613739014
3352,2358.591846704483
3353,2359.295832633972
3354,2360.1738152503967
3355,2361.150795698166
3356,2362.145775794983
3357,2363.089756965637
3358,2363.9897389411926
3359,2364.840721845627
3360,2365.6257061958313
3361,2366.383691072464
3362,2367.1316759586334
3363,2367.8286621570587
3364,2368.544647693634
3365,2369.3476316928864
3366,2370.3066124916077
3367,2371.3015925884247
3368,2372.212574481964
3369,2373.0475578308105
3370,2373.81854224205
3371,2374.5575275421143
3372,2375.2295141220093
3373,2375.9075005054474
3374,2376.606486558914
3375,2377.37247133255
3376,2378.182455062866
3377,2379.224434375763
3378,2380.1154165267944
3379,2380.948399782181
3380,2381.716384410858
3381,2382.406370639801
3382,2383.060357570648
3383,2383.721344470978
3384,2384.3863310813904
3385,2385.065317630768
3386,2385.764303445816
3387,2386.479289293289
3388,2387.2722733020782
3389,2388.062257528305
3390,2388.7822432518005
3391,2389.4632296562195
3392,2390.1322162151337
3393,2390.7882030010223
3394,2391.443190097809
3395,2392.110176563263
3396,2392.7831633090973
3397,2393.4601497650146
3398,2394.1411361694336
3399,2394.8081226348877
3400,2395.470109462738
3401,2396.1490960121155
3402,2396.831082344055
3403,2397.527068376541
3404,2398.2360541820526
3405,2398.9380402565002
3406,2399.634026288986
3407,2400.3210124969482
3408,2401.0069987773895
3409,2401.7019848823547
3410,2402.3839712142944
3411,2403.059957742691
3412,2403.7339441776276
3413,2404.404930830002
3414,2405.0779173374176
3415,2405.7559039592743
3416,2406.434890270233
3417,2407.1128766536713
3418,2407.797863006592
3419,2408.4768495559692
3420,2409.1518359184265
3421,2409.8258225917816
3422,2410.491809129715
3423,2411.1677956581116
3424,2411.843782186508
3425,2412.516768693924
3426,2413.1987550258636
3427,2413.8877413272858
3428,2414.5777275562286
3429,2415.269713640213
3430,2415.959699869156
3431,2416.6416862010956
3432,2417.317672729492
3433,2417.998659133911
3434,2418.6676456928253
3435,2419.325632572174
3436,2419.9926192760468
3437,2420.6516060829163
3438,2421.307592868805
3439,2421.970579624176
3440,2422.643566131592
3441,2423.326552629471
3442,2424.019538640976
3443,2424.7165248394012
3444,2425.445510149002
3445,2426.1834955215454
3446,2426.880481481552
3447,2427.5714676380157
3448,2428.245454311371
3449,2428.9134409427643
3450,2429.5814275741577
3451,2430.2534141540527
3452,2430.9254007339478
3453,2431.6103870868683
3454,2432.299373149872
3455,2432.982359647751
3456,2433.6893453598022
3457,2434.3983311653137
3458,2435.078317642212
3459,2435.765303850174
3460,2436.3787915706635
3461,2436.992279291153
3462,2437.969259738922
3463,2438.8162429332733
3464,2439.589227437973
3465,2440.3152129650116
3466,2441.0211987495422
3467,2441.7011852264404
3468,2442.435170650482
3469,2443.27015376091
3470,2444.3721318244934
3471,2445.4601101875305
3472,2446.4370906352997
3473,2447.317072868347
3474,2448.157056093216
3475,2448.931040763855
3476,2449.691025495529
3477,2450.3850116729736
3478,2451.05899810791
3479,2451.7629840373993
3480,2452.6109671592712
3481,2453.6939454078674
3482,2454.6889255046844
3483,2455.6039073467255
3484,2456.453890323639
3485,2457.239874601364
3486,2458.009859085083
3487,2458.7178449630737
3488,2459.4048314094543
3489,2460.116816997528
3490,2460.9078011512756
3491,2461.7267849445343
3492,2462.766764163971
3493,2463.729744911194
3494,2464.5997273921967
3495,2465.3817117214203
3496,2466.141696691513
3497,2466.8366827964783
3498,2467.509669303894
3499,2468.1776559352875
3500,2468.869642019272
3501,2469.6386268138885
3502,2470.4496104717255
3503,2471.5855877399445
3504,2472.6205670833588
3505,2473.494549512863
3506,2474.2765340805054
3507,2475.0025193691254
3508,2475.7165052890778
3509,2476.3954916000366
3510,2477.106477499008
3511,2477.885461807251
3512,2478.601447582245
3513,2479.608427286148
3514,2480.61540722847
3515,2481.4403908252716
3516,2482.1783759593964
3517,2482.8843619823456
3518,2483.5273489952087
3519,2484.1913356781006
3520,2484.8433227539062
3521,2485.5043094158173
3522,2486.1512966156006
3523,2486.8122832775116
3524,2487.497269630432
3525,2488.248254776001
3526,2489.01823925972
3527,2489.797223806381
3528,2490.511209487915
3529,2491.214195251465
3530,2491.9171812534332
3531,2492.607167482376
3532,2493.3011536598206
3533,2493.9901399612427
3534,2494.6811261177063
3535,2495.3831119537354
3536,2496.109097480774
3537,2496.9000816345215
3538,2497.6920659542084
3539,2498.440050840378
3540,2499.161036491394
3541,2499.8700222969055
3542,2500.56200838089
3543,2501.2519946098328
3544,2501.9299812316895
3545,2502.5929679870605
3546,2503.241954803467
3547,2503.882942199707
3548,2504.5319290161133
3549,2505.189915895462
3550,2505.8489027023315
3551,2506.510889530182
3552,2507.182876110077
3553,2507.8418629169464
3554,2508.5188493728638
3555,2509.263834476471
3556,2510.03581905365
3557,2510.87780213356
3558,2512.0137796401978
3559,2513.014759540558
3560,2513.9077417850494
3561,2514.7117257118225
3562,2515.4467108249664
3563,2516.166696548462
3564,2516.827683210373
3565,2517.5216693878174
3566,2518.214655637741
3567,2518.9006419181824
3568,2519.6136276721954
3569,2520.3326132297516
3570,2521.023599386215
3571,2521.6885862350464
3572,2522.3345732688904
3573,2522.969560623169
3574,2523.5995478630066
3575,2524.2385351657867
3576,2524.863522529602
3577,2525.4835102558136
3578,2526.1094977855682
3579,2526.741485118866
3580,2527.371472597122
3581,2527.986460208893
3582,2528.598448038101
3583,2529.215435743332
3584,2529.829423427582
3585,2530.4534108638763
3586,2531.0833983421326
3587,2531.7063858509064
3588,2532.3283734321594
3589,2532.9573607444763
3590,2533.6083478927612
3591,2534.2823343276978
3592,2534.9633207321167
3593,2535.632307291031
3594,2536.306293964386
3595,2536.9892802238464
3596,2537.6672666072845
3597,2538.335253238678
3598,2539.0172395706177
3599,2539.72922539711
3600,2540.5132098197937
3601,2541.3061938285828
3602,2542.0131797790527
3603,2542.6741666793823
3604,2543.3141536712646
3605,2543.9561409950256
3606,2544.6111278533936
3607,2545.263114929199
3608,2545.9121017456055
3609,2546.5920882225037
3610,2547.366072654724
3611,2548.355052947998
3612,2549.3750326633453
3613,2550.286014318466
3614,2551.1379973888397
3615,2551.9279816150665
3616,2552.70996594429
3617,2553.4719507694244
3618,2554.2179358005524
3619,2554.9309215545654
3620,2555.844903230667
3621,2556.8088839054108
3622,2557.708865880966
3623,2558.568848848343
3624,2559.37983250618
3625,2560.176816701889
3626,2560.9028022289276
3627,2561.5467891693115
3628,2562.1977763175964
3629,2562.8337635993958
3630,2563.4917504787445
3631,2564.1877365112305
3632,2564.8827226161957
3633,2565.656707048416
3634,2566.478690624237
3635,2567.3396735191345
3636,2568.0206599235535
3637,2568.703646183014
3638,2569.3776326179504
3639,2570.0516192913055
3640,2570.719605922699
3641,2571.3695929050446
3642,2572.031579732895
3643,2572.706566095352
3644,2573.382552623749
3645,2574.0555391311646
3646,2574.758525133133
3647,2575.520509958267
3648,2576.249495267868
3649,2576.980480670929
3650,2577.7554652690887
3651,2578.4844505786896
3652,2579.181436777115
3653,2579.8694229125977
3654,2580.538909673691
3655,2581.2083961963654
3656,2582.2123761177063
3657,2583.0723588466644
3658,2583.8533432483673
3659,2584.572329044342
3660,2585.2433154582977
3661,2585.8923025131226
3662,2586.545289516449
3663,2587.1982765197754
3664,2587.84526348114
3665,2588.509250164032
3666,2589.173236846924
3667,2590.3152141571045
3668,2591.332193851471
3669,2592.2321758270264
3670,2593.0271599292755
3671,2593.786144733429
3672,2594.5291299819946
3673,2595.2141160964966
3674,2595.9711010456085
3675,2596.879082918167
3676,2597.8720631599426
3677,2598.793044567108
3678,2599.673027038574
3679,2600.5080103874207
3680,2601.3039944171906
3681,2602.0729789733887
3682,2602.766965150833
3683,2603.424952030182
3684,2604.0989384651184
3685,2604.7719252109528
3686,2605.4809110164642
3687,2606.2458956241608
3688,2606.939881801605
3689,2607.6488676071167
3690,2608.352853536606
3691,2609.0498394966125
3692,2609.7418258190155
3693,2610.4228122234344
3694,2611.1107983589172
3695,2611.801784515381
3696,2612.4807710647583
3697,2613.147757768631
3698,2613.8137443065643
3699,2614.4817309379578
3700,2615.1327180862427
3701,2615.7847049236298
3702,2616.437691926956
3703,2617.092678785324
3704,2617.7616653442383
3705,2618.4326519966125
3706,2619.083638906479
3707,2619.730626106262
3708,2620.3986127376556
3709,2621.0855989456177
3710,2621.756585597992
3711,2622.4145724773407
3712,2623.062559366226
3713,2623.699546813965
3714,2624.325534105301
3715,2624.946521759033
3716,2625.5795090198517
3717,2626.217496395111
3718,2626.8524837493896
3719,2627.4904708862305
3720,2628.122458219528
3721,2628.7464458942413
3722,2629.378433227539
3723,2630.0174202919006
3724,2630.667407512665
3725,2631.319394350052
3726,2631.9713814258575
3727,2632.621368408203
3728,2633.267355442047
3729,2633.9263422489166
3730,2634.5893290042877
3731,2635.2623155117035
3732,2635.9583015441895
3733,2636.6502878665924
3734,2637.323274374008
3735,2638.0072605609894
3736,2638.6812472343445
3737,2639.33123421669
3738,2639.9932210445404
3739,2640.6592075824738
3740,2641.324194431305
3741,2641.993180990219
3742,2642.6701674461365
3743,2643.3541538715363
3744,2644.036140203476
3745,2644.70512676239
3746,2645.3591136932373
3747,2646.006100654602
3748,2646.654087781906
3749,2647.303074836731
3750,2647.951061964035
3751,2648.6010489463806
3752,2649.2390360832214
3753,2649.8700234889984
3754,2650.502010822296
3755,2651.132998228073
3756,2651.76398563385
3757,2652.3999729156494
3758,2653.0299603939056
3759,2653.6509478092194
3760,2654.2729353904724
3761,2654.8949229717255
3762,2655.5189106464386
3763,2656.1478979587555
3764,2656.7778854370117
3765,2657.3998730182648
3766,2658.021860599518
3767,2658.637848138809
3768,2659.2448360919952
3769,2659.8468239307404
3770,2660.442812204361
3771,2661.0398001670837
3772,2661.6387882232666
3773,2662.2447760105133
3774,2662.849764108658
3775,2663.450752019882
3776,2664.0517399311066
3777,2664.6537280082703
3778,2665.252716064453
3779,2665.8507039546967
3780,2666.447692155838
3781,2667.0396802425385
3782,2667.632668495178
3783,2668.2346563339233
3784,2668.84264421463
3785,2669.449632167816
3786,2670.052619934082
3787,2670.6556079387665
3788,2671.267595767975
3789,2671.8795835971832
3790,2672.4865713119507
3791,2673.081559419632
3792,2673.6745476722717
3793,2674.2725355625153
3794,2674.868523836136
3795,2675.462511777878
3796,2676.0564999580383
3797,2676.6434881687164
3798,2677.231476545334
3799,2677.8314645290375
3800,2678.440452337265
3801,2679.060439825058
3802,2679.6744277477264
3803,2680.2864153385162
3804,2680.895403146744
3805,2681.5043909549713
3806,2682.1083788871765
3807,2682.7153668403625
3808,2683.3403544425964
3809,2683.9783415794373
3810,2684.6113288402557
3811,2685.2423162460327
3812,2685.8613040447235
3813,2686.4782915115356
3814,2687.0942792892456
3815,2687.7022671699524
3816,2688.296255350113
3817,2688.8942432403564
3818,2689.497231245041
3819,2690.0942194461823
3820,2690.6872074604034
3821,2691.2761957645416
3822,2691.859184026718
3823,2692.4391725063324
3824,2693.022160768509
3825,2693.6011493206024
3826,2694.1731379032135
3827,2694.7421264648438
3828,2695.3151149749756
3829,2695.898103237152
3830,2696.488091468811
3831,2697.077079772949
3832,2697.6750676631927
3833,2698.2690558433533
3834,2698.859044075012
3835,2699.452032327652
3836,2700.051020383835
3837,2700.6490082740784
3838,2701.259996175766
3839,2701.881983757019
3840,2702.503971338272
3841,2703.132958650589
3842,2703.7749457359314
3843,2704.4319326877594
3844,2705.1029193401337
3845,2705.7739057540894
3846,2706.422892808914
3847,2707.050880432129
3848,2707.679867744446
3849,2708.3198549747467
3850,2708.9548423290253
3851,2709.586829662323
3852,2710.2278168201447
3853,2710.8618042469025
3854,2711.494791507721
3855,2712.1387786865234
3856,2712.788765668869
3857,2713.437752723694
3858,2714.0847396850586
3859,2714.7327268123627
3860,2715.3937134742737
3861,2716.0507004261017
3862,2716.693687438965
3863,2717.3726739883423
3864,2718.1846578121185
3865,2719.081639766693
3866,2719.823625087738
3867,2720.4946115016937
3868,2721.1645982265472
3869,2721.8255848884583
3870,2722.485571861267
3871,2723.3685541152954
3872,2724.4125332832336
3873,2725.3435146808624
3874,2726.240496635437
3875,2727.0544803142548
3876,2727.8154652118683
3877,2728.521450996399
3878,2729.175437927246
3879,2729.8304250240326
3880,2730.485911846161
3881,2731.141398668289
3882,2732.155378341675
3883,2733.101359605789
3884,2734.0023415088654
3885,2734.8623242378235
3886,2735.747306585312
3887,2736.6882877349854
3888,2737.613269329071
3889,2738.5372507572174
3890,2739.4592323303223
3891,2740.442212820053
3892,2741.5101914405823
3893,2742.5311710834503
3894,2743.492151737213
3895,2744.4001336097717
3896,2745.303115606308
3897,2746.204097509384
3898,2747.1710782051086
3899,2748.1350588798523
3900,2749.0710401535034
3901,2749.987021923065
3902,2750.8400049209595
3903,2751.6409888267517
3904,2752.4239733219147
3905,2753.1499586105347
3906,2753.7779462337494
3907,2754.410933494568
3908,2755.0519206523895
3909,2756.0239012241364
3910,2757.0708804130554
3911,2757.9558625221252
3912,2758.7558467388153
3913,2759.4748322963715
3914,2760.1798181533813
3915,2760.838804960251
3916,2761.516791343689
3917,2762.188777923584
3918,2762.8557646274567
3919,2763.6097495555878
3920,2764.870724439621
3921,2765.9167034626007
3922,2766.818685531616
3923,2767.615669488907
3924,2768.389654159546
3925,2769.0866401195526
3926,2769.7536268234253
3927,2770.529611349106
3928,2771.4315931797028
3929,2772.357574701309
3930,2773.138559103012
3931,2773.8795442581177
3932,2774.515531539917
3933,2775.145519018173
3934,2775.7675065994263
3935,2776.3759944438934
3936,2776.9844822883606
3937,2777.9894621372223
3938,2778.862444639206
3939,2779.66942858696
3940,2780.4254133701324
3941,2781.183398246765
3942,2781.8443851470947
3943,2782.5503709316254
3944,2783.317355632782
3945,2784.022341489792
3946,2784.7513270378113
3947,2785.548310995102
3948,2786.223297595978
3949,2786.898283958435
3950,2787.544270992279
3951,2788.1762585639954
3952,2788.7952461242676
3953,2789.4092338085175
3954,2790.015221595764
3955,2790.625209569931
3956,2791.2361972332
3957,2791.8481850624084
3958,2792.4611728191376
3959,2793.0721604824066
3960,2793.6891481876373
3961,2794.315135717392
3962,2794.946123123169
3963,2795.5801105499268
3964,2796.214097738266
3965,2796.8610849380493
3966,2797.509071826935
3967,2798.13605928421
3968,2798.75004696846
3969,2799.3610348701477
3970,2799.9720225334167
3971,2800.578010559082
3972,2801.1879982948303
3973,2801.7979860305786
3974,2802.402974128723
3975,2803.0029621124268
3976,2803.604949951172
3977,2804.210937976837
3978,2804.8149259090424
3979,2805.420913696289
3980,2806.043901205063
3981,2806.700888156891
3982,2807.386874437332
3983,2808.0628609657288
3984,2808.728847503662
3985,2809.380834579468
3986,2810.0288214683533
3987,2810.679808616638
3988,2811.317795753479
3989,2811.9447832107544
3990,2812.562770843506
3991,2813.1967582702637
3992,2813.8337454795837
3993,2814.460732936859
3994,2815.083720445633
3995,2815.6867084503174
3996,2816.278696537018
3997,2816.8686847686768
3998,2817.4776725769043
3999,2818.102660179138
4000,2818.7206478118896
4001,2819.3456354141235
4002,2819.9666228294373
4003,2820.6056101322174
4004,2821.252597093582
4005,2821.871584892273
4006,2822.476572751999
4007,2823.0855605602264
4008,2823.691548347473
4009,2824.281536579132
4010,2824.8665249347687
4011,2825.4415135383606
4012,2826.0265016555786
4013,2826.6244897842407
4014,2827.222477912903
4015,2827.8224658966064
4016,2828.4334535598755
4017,2829.0494413375854
4018,2829.6594290733337
4019,2830.2754168510437
4020,2830.887404680252
4021,2831.507392168045
4022,2832.1313796043396
4023,2832.7533671855927
4024,2833.3903546333313
4025,2834.0303416252136
4026,2834.6583292484283
4027,2835.2853167057037
4028,2835.9053041934967
4029,2836.5122921466827
4030,2837.1112802028656
4031,2837.709268093109
4032,2838.331255674362
4033,2839.000242471695
4034,2839.7032282352448
4035,2840.385214805603
4036,2841.0752007961273
4037,2841.780186891556
4038,2842.4621732234955
4039,2843.106160402298
4040,2843.719148159027
4041,2844.3201360702515
4042,2844.9281239509583
4043,2845.5351116657257
4044,2846.153099298477
4045,2846.7760870456696
4046,2847.4050743579865
4047,2848.0190620422363
4048,2848.636049747467
4049,2849.244037628174
4050,2849.8430256843567
4051,2850.4370136260986
4052,2851.017002105713
4053,2851.588990688324
4054,2852.152979373932
4055,2852.718968153
4056,2853.281956911087
4057,2853.8469455242157
4058,2854.42493391037
4059,2855.0189220905304
4060,2855.6379096508026
4061,2856.275897026062
4062,2856.929883956909
4063,2857.5748710632324
4064,2858.2118582725525
4065,2858.8368458747864
4066,2859.4558334350586
4067,2860.0618212223053
4068,2860.6538095474243
4069,2861.224797964096
4070,2861.8097863197327
4071,2862.3937747478485
4072,2862.9717631340027
4073,2863.539751768112
4074,2864.094740629196
4075,2864.660729408264
4076,2865.218718290329
4077,2865.780706882477
4078,2866.3356959819794
4079,2866.8906848430634
4080,2867.4456737041473
4081,2867.9906628131866
4082,2868.5336520671844
4083,2869.074641227722
4084,2869.61563038826
4085,2870.1536195278168
4086,2870.6916089057922
4087,2871.23059797287
4088,2871.7655873298645
4089,2872.3025765419006
4090,2872.838565826416
4091,2873.371555328369
4092,2873.9025444984436
4093,2874.4375338554382
4094,2874.972523212433
4095,2875.517512321472
4096,2876.0715012550354
4097,2876.618490219116
4098,2877.173479318619
4099,2877.7144684791565
4100,2878.2584574222565
4101,2878.795446872711
4102,2879.3324360847473
4103,2879.8724253177643
4104,2880.4274141788483
4105,2880.9664034843445
4106,2881.4893929958344
4107,2882.004382610321
4108,2882.5173723697662
4109,2883.032361984253
4110,2883.5433518886566
4111,2884.0543415546417
4112,2884.566331386566
4113,2885.0753211975098
4114,2885.5843110084534
4115,2886.0913009643555
4116,2886.598290681839
4117,2887.106280565262
4118,2887.613270521164
4119,2888.120260477066
4120,2888.6282501220703
4121,2889.1352400779724
4122,2889.641229867935
4123,2890.146219968796
4124,2890.6532096862793
4125,2891.1591997146606
4126,2891.660189628601
4127,2892.1631796360016
4128,2892.6651694774628
4129,2893.166159391403
4130,2893.667149543762
4131,2894.167139530182
4132,2894.6671295166016
4133,2895.165119409561
4134,2895.6691093444824
4135,2896.180099248886
4136,2896.686089038849
4137,2897.1950788497925
4138,2897.707068681717
4139,2898.2270584106445
4140,2898.760047674179
4141,2899.292037010193
4142,2899.8150265216827
4143,2900.3410160541534
4144,2900.865005493164
4145,2901.387995004654
4146,2901.90598487854
4147,2902.4249744415283
4148,2902.9469640254974
4149,2903.467953443527
4150,2903.9919431209564
4151,2904.512932538986
4152,2905.0339221954346
4153,2905.5579118728638
4154,2906.093901157379
4155,2906.628890275955
4156,2907.1618797779083
4157,2907.6958689689636
4158,2908.2308583259583
4159,2908.763847589493
4160,2909.2958369255066
4161,2909.8288264274597
4162,2910.3608157634735
4163,2910.8898050785065
4164,2911.425794363022
4165,2911.990783214569
4166,2912.577771425247
4167,2913.17475938797
4168,2913.7527480125427
4169,2914.3167366981506
4170,2914.8717255592346
4171,2915.4207146167755
4172,2915.9677035808563
4173,2916.519692659378
4174,2917.0736815929413
4175,2917.626670360565
4176,2918.1836593151093
4177,2918.7456481456757
4178,2919.3276364803314
4179,2919.9416241645813
4180,2920.615610599518
4181,2921.2825973033905
4182,2921.896585226059
4183,2922.498573064804
4184,2923.094561100006
4185,2923.6945490837097
4186,2924.2855372428894
4187,2924.8675258159637
4188,2925.4465141296387
4189,2926.029502391815
4190,2926.6154906749725
4191,2927.202479124069
4192,2927.7944672107697
4193,2928.3814554214478
4194,2931.582185268402
4195,2932.1557624340057
4196,2932.7173063755035
4197,2933.2738366127014
4198,2933.8323724269867
4199,2934.3939163684845
4200,2934.951449394226
4201,2935.5139961242676
4202,2936.0745375156403
4203,2936.6420979499817
4204,2937.208655834198
4205,2937.7752137184143
4206,2938.339766025543
4207,2938.9103348255157
4208,2939.4909312725067
4209,2940.0715277194977
4210,2940.659143447876
4211,2941.249767303467
4212,2941.8474106788635
4213,2942.451070547104
4214,2943.0537276268005
4215,2943.6523735523224
4216,2944.251019716263
4217,2944.864706993103
4218,2945.49343585968
4219,2946.1281809806824
4220,2946.7488877773285
4221,2947.3635778427124
4222,2947.970246076584
4223,2948.567889213562
4224,2949.160518884659
4225,2949.7431206703186
4226,2950.3207087516785
4227,2950.889272212982
4228,2951.4578354358673
4229,2952.026398897171
4230,2952.5919539928436
4231,2953.1655309200287
4232,2953.7581605911255
4233,2954.391902923584
4234,2955.1319377422333
4235,2955.901052713394
4236,2956.5678861141205
4237,2957.2046370506287
4238,2957.837376832962
4239,2958.486160516739
4240,2959.122911453247
4241,2959.743618249893
4242,2960.3522918224335
4243,2960.946926832199
4244,2961.535545349121
4245,2962.131182909012
4246,2962.7378511428833
4247,2963.3555495738983
4248,2963.9802672863007
4249,2964.596962928772
4250,2965.2006227970123
4251,2965.7982659339905
4252,2966.387887239456
4253,2966.973497390747
4254,2967.557102203369
4255,2968.1356930732727
4256,2968.7092702388763
4257,2969.2828471660614
4258,2969.8624408245087
4259,2970.4570758342743
4260,2971.0537164211273
4261,2971.6463458538055
4262,2972.2510085105896
4263,2972.857676744461
4264,2973.4653475284576
4265,2974.077029466629
4266,2974.6877086162567
4267,2975.2973849773407
4268,2975.9261136054993
4269,2976.6290464401245
4270,2977.390139102936
4271,2978.0499534606934
4272,2978.686704158783
4273,2979.3224523067474
4274,2979.964216709137
4275,2980.605981349945
4276,2981.256770849228
4277,2982.331726551056
4278,2983.2271885871887
4279,2984.0554661750793
4280,2984.828591823578
4281,2985.564615726471
4282,2986.2635374069214
4283,2986.894271850586
4284,2987.525006055832
4285,2988.184820175171
4286,2988.9108164310455
4287,2989.8132979869843
4288,2990.7348318099976
4289,2991.655362844467
4290,2993.8640084266663
4291,2994.755008459091
4292,3000.0425539016724
4293,3000.8801624774933
4294,3001.664921760559
4295,3002.425749540329
4296,3003.16463971138
4297,3004.0531029701233
4298,3004.8468368053436
4299,3005.604672908783
4300,3006.2807426452637
4301,3006.9139347076416
4302,3007.536158323288
4303,3008.1543929576874
4304,3008.7626564502716
4305,3009.3988399505615
4306,3010.0569608211517
4307,3010.711093187332
4308,3011.375197172165
4309,3012.025340795517
4310,3012.675484418869
4311,3013.3276224136353
4312,3013.9707860946655
4313,3014.6029810905457
4314,3015.217227458954
4315,3015.8344650268555
4316,3016.4447226524353
4317,3017.049994468689
4318,3017.648286342621
4319,3018.23361492157
4320,3018.8149552345276
4321,3019.406266927719
4322,3020.0095443725586
4323,3020.6327650547028
4324,3021.292880296707
4325,3021.9958729743958
4326,3022.701857328415
4327,3023.3669583797455
4328,3024.041033744812
4329,3024.7011489868164
4330,3025.371235847473
4331,3026.075225830078
4332,3026.7702412605286
4333,3027.4313538074493
4334,3028.076511621475
4335,3028.720672607422
4336,3029.3748047351837
4337,3030.010988473892
4338,3030.6661179065704
4339,3031.3192529678345
4340,3031.9853513240814
4341,3032.6444692611694
4342,3033.301593065262
4343,3033.8988876342773
4344,3034.4961824417114
4345,3035.5142755508423
4346,3036.3468980789185
4347,3037.1466147899628
4348,3037.8914880752563
4349,3038.576532125473
4350,3039.217701435089
4351,3039.847902059555
4352,3040.466136932373
4353,3041.1003262996674
4354,3041.7664244174957
4355,3042.492351770401
4356,3043.2033216953278
4357,3043.912297487259
4358,3044.5783956050873
4359,3045.2295365333557
4360,3045.8407912254333
4361,3046.4570319652557
4362,3047.0623037815094
4363,3047.671564102173
4364,3048.2937874794006
4365,3048.923988342285
4366,3049.578120470047
4367,3050.1604578495026
4368,3050.742795228958
4369,3051.6202898025513
4370,3052.4399495124817
4371,3053.170862674713
4372,3053.8359637260437
4373,3054.471150159836
4374,3055.1013507843018
4375,3055.7405257225037
4376,3071.3398838043213
4377,3072.0388836860657
4378,3073.8666191101074
4379,3075.0456190109253
4380,3076.003618955612
4381,3081.1137313842773
4382,3082.0117313861847
4383,3083.0597314834595
4384,3091.9541964530945
4385,3093.0811965465546
4386,3094.101196527481
4387,3095.773311853409
4388,3096.594311952591
4389,3097.7296137809753
4390,3098.5726137161255
4391,3099.3836138248444
4392,3100.105613708496
4393,3102.913136959076
4394,3103.6121368408203
4395,3104.2601368427277
4396,3105.063136816025
4397,3105.9361367225647
4398,3109.9673421382904
4399,3110.666361808777
4400,3111.3333806991577
4401,3111.9883992671967
4402,3112.6304173469543
4403,3113.2714354991913
4404,3113.91645359993
4405,3114.563472032547
4406,3115.199490070343
4407,3115.8445081710815
4408,3116.4835262298584
4409,3117.120544195175
4410,3117.7515621185303
4411,3118.379579782486
4412,3119.011597633362
4413,3119.6576159000397
4414,3120.302634239197
4415,3120.9696531295776
4416,3121.6376719474792
4417,3122.320691347122
4418,3122.997710466385
4419,3123.6557290554047
4420,3124.3117475509644
4421,3124.963765859604
4422,3125.617784500122
4423,3126.2608025074005
4424,3126.8988206386566
4425,3127.5448389053345
4426,3128.1748566627502
4427,3128.804874420166
4428,3129.4398925304413
4429,3130.073910474777
4430,3130.712928533554
4431,3131.3629467487335
4432,3132.0149652957916
4433,3132.6699838638306
4434,3133.310001850128
4435,3133.953020095825
4436,3134.5780377388
4437,3135.203055381775
4438,3135.8170726299286
4439,3136.421089887619
4440,3137.0281069278717
4441,3137.635124206543
4442,3138.243141412735
4443,3138.8591587543488
4444,3139.4821763038635
4445,3140.1201944351196
4446,3140.7712128162384
4447,3141.430231332779
4448,3142.085249900818
4449,3142.7442684173584
4450,3143.4102873802185
4451,3144.0743060112
4452,3144.745325088501
4453,3145.4183440208435
4454,3146.0703625679016
4455,3146.7193808555603
4456,3147.368399143219
4457,3148.004417181015
4458,3148.645435333252
4459,3149.2734529972076
4460,3149.8904705047607
4461,3150.497487783432
4462,3151.094504594803
4463,3151.690521478653
4464,3152.2815380096436
4465,3152.8635544776917
4466,3153.4485709667206
4467,3154.036587715149
4468,3154.63760471344
4469,3155.236621618271
4470,3155.851639032364
4471,3156.478656768799
4472,3157.1156747341156
4473,3157.7636930942535
4474,3158.4147114753723
4475,3159.070729970932
4476,3159.735748767853
4477,3160.3917672634125
4478,3161.0527861118317
4479,3161.7248051166534
4480,3162.415824651718
4481,3163.1268446445465
4482,3163.850865125656
4483,3164.5588850975037
4484,3165.2539048194885
4485,3165.944924354553
4486,3166.6159431934357
4487,3167.2649614810944
4488,3167.9199800491333
4489,3168.5889990329742
4490,3169.272018432617
4491,3169.9380371570587
4492,3170.5900554656982
4493,3171.255074262619
4494,3171.92609333992
4495,3172.572111606598
4496,3173.217129945755
4497,3173.8601479530334
4498,3174.4961659908295
4499,3175.1331839561462
4500,3175.7712020874023
4501,3176.425220489502
4502,3177.087239265442
4503,3177.7482578754425
4504,3178.4082765579224
4505,3179.090295791626
4506,3179.768315076828
4507,3180.4453341960907
4508,3181.194355249405
4509,3181.9283759593964
4510,3182.657396554947
4511,3183.3734169006348
4512,3184.166439294815
4513,3184.9364609718323
4514,3185.6254806518555
4515,3186.3134999275208
4516,3186.9735186100006
4517,3187.6325373649597
4518,3188.2845556735992
4519,3188.9455742836
4520,3189.6295936107635
4521,3190.3316135406494
4522,3191.092635154724
4523,3192.3456704616547
4524,3193.3196980953217
4525,3194.1887226104736
4526,3195.1087486743927
4527,3195.9927735328674
4528,3196.819797039032
4529,3197.659820795059
4530,3198.5098447799683
4531,3199.3618688583374
4532,3200.2918951511383
4533,3201.264922618866
4534,3202.250950574875
4535,3203.1799767017365
4536,3204.1150031089783
4537,3204.996027946472
4538,3205.860052585602
4539,3206.7040762901306
4540,3207.539099931717
4541,3208.374123573303
4542,3209.2541484832764
4543,3210.242176294327
4544,3211.199203491211
4545,3212.0922286510468
4546,3212.914251804352
4547,3213.6922738552094
4548,3214.437294960022
4549,3215.2163169384003
4550,3215.9573378562927
4551,3216.7283596992493
4552,3217.4723806381226
4553,3218.7074155807495
4554,3219.8014464378357
4555,3220.748473405838
4556,3221.648498773575
4557,3222.4925224781036
4558,3223.32554602623
4559,3224.1685700416565
4560,3225.0135939121246
4561,3225.8956186771393
4562,3226.8366453647614
4563,3227.8296735286713
4564,3228.7426991462708
4565,3229.60272359848
4566,3230.3897457122803
4567,3231.173768043518
4568,3231.8787879943848
4569,3232.57080745697
4570,3233.275827407837
4571,3234.5568635463715
4572,3235.629894018173
4573,3236.6509227752686
4574,3237.5949494838715
4575,3238.4559738636017
4576,3239.2829971313477
4577,3240.083019733429
4578,3240.8870425224304
4579,3241.7550671100616
4580,3242.893099308014
4581,3244.027131319046
4582,3245.077160835266
4583,3246.141191005707
4584,3247.094218015671
4585,3247.9592423439026
4586,3248.798266172409
4587,3249.628289461136
4588,3250.4153118133545
4589,3251.2353348731995
4590,3251.9563553333282
4591,3252.7893788814545
4592,3253.514399290085
4593,3254.253420352936
4594,3254.971440553665
4595,3255.7754633426666
4596,3256.465482711792
4597,3257.7365188598633
4598,3258.730546951294
4599,3259.5595703125
4600,3260.3285920619965
4601,3261.046612262726
4602,3261.8086338043213
4603,3262.7406601905823
4604,3263.748688697815
4605,3264.7857179641724
4606,3265.863748550415
4607,3266.8087751865387
4608,3267.6797997951508
4609,3268.702828645706
4610,3269.7918593883514
4611,3270.806888103485
4612,3271.7519149780273
4613,3272.6119391918182
4614,3273.4619631767273
4615,3274.2949867248535
4616,3275.1310102939606
4617,3275.935033082962
4618,3276.7560563087463
4619,3277.548078775406
4620,3278.3081002235413
4621,3279.0981225967407
4622,3279.8971450328827
4623,3280.6301658153534
4624,3281.363186597824
4625,3282.6672234535217
4626,3283.7012526988983
4627,3284.644279241562
4628,3285.496303319931
4629,3286.306326150894
4630,3287.1203491687775
4631,3287.9393725395203
4632,3288.750395298004
4633,3289.4984164237976
4634,3290.5224454402924
4635,3291.718479156494
4636,3292.777509212494
4637,3293.688534975052
4638,3294.542559146881
4639,3295.3495819568634
4640,3296.1216037273407
4641,3296.9626274108887
4642,3297.8766531944275
4643,3298.8956820964813
4644,3299.9257111549377
4645,3300.8747379779816
4646,3301.770763397217
4647,3302.619787454605
4648,3303.4128098487854
4649,3304.2058322429657
4650,3304.966853618622
4651,3305.7678763866425
4652,3306.749904155731
4653,3307.7949335575104
4654,3308.755960702896
4655,3309.6249854564667
4656,3310.4120075702667
4657,3311.1520285606384
4658,3311.8680486679077
4659,3312.5390677452087
4660,3313.243087530136
4661,3314.492122888565
4662,3315.5571529865265
4663,3316.5321805477142
4664,3317.3782045841217
4665,3318.1792271137238
4666,3318.955249071121
4667,3319.631268262863
4668,3320.3022871017456
4669,3321.12331032753
4670,3322.1483392715454
4671,3323.175368309021
4672,3324.036392688751
4673,3324.7874138355255
4674,3325.5264348983765
4675,3326.185453414917
4676,3326.8584723472595
4677,3327.521491289139
4678,3328.211510658264
4679,3328.906530380249
4680,3329.6365509033203
4681,3330.8865864276886
4682,3331.9846172332764
4683,3333.0196466445923
4684,3333.962673187256
4685,3334.797696828842
4686,3335.6027195453644
4687,3336.413742542267
4688,3337.192764520645
4689,3337.9477858543396
4690,3339.2248220443726
4691,3340.3388533592224
4692,3341.3238813877106
4693,3342.2449073791504
4694,3343.081931114197
4695,3343.8839535713196
4696,3344.689976453781
4697,3345.4499979019165
4698,3346.3660237789154
4699,3347.6050589084625
4700,3348.7160902023315
4701,3349.76011967659
4702,3350.732147216797
4703,3351.577171087265
4704,3352.3981943130493
4705,3353.2192175388336
4706,3354.0852420330048
4707,3355.0392689704895
4708,3356.1543004512787
4709,3357.2533316612244
4710,3358.224359035492
4711,3359.1203842163086
4712,3359.983408689499
4713,3360.8204324245453
4714,3361.6244552135468
4715,3362.467478990555
4716,3363.35750412941
4717,3364.3705327510834
4718,3365.390561580658
4719,3366.3645889759064
4720,3367.2786149978638
4721,3368.1506395339966
4722,3368.963662624359
4723,3369.748684644699
4724,3370.5557074546814
4725,3371.511734485626
4726,3372.540763616562
4727,3373.5447919368744
4728,3374.4758183956146
4729,3375.3268423080444
4730,3376.0778636932373
4731,3376.7348821163177
4732,3377.3859004974365
4733,3378.0499193668365
4734,3378.7329387664795
4735,3379.437958717346
4736,3380.7249948978424
4737,3381.83202624321
4738,3382.8570551872253
4739,3383.7760813236237
4740,3384.616105079651
4741,3385.3971271514893
4742,3386.2001497745514
4743,3386.9441707134247
4744,3387.725192785263
4745,3389.014229297638
4746,3390.103260040283
4747,3391.081287622452
4748,3391.939311981201
4749,3392.733334302902
4750,3393.5183565616608
4751,3394.2353768348694
4752,3394.96639752388
4753,3395.774420261383
4754,3397.062456846237
4755,3398.1684880256653
4756,3399.1775164604187
4757,3400.033540725708
4758,3400.83456325531
4759,3401.6095852851868
4760,3402.3186054229736
4761,3403.0096249580383
4762,3403.7026443481445
4763,3404.3631629943848
4764,3405.0236818790436
4765,3406.0857117176056
4766,3406.969736814499
4767,3407.7457587718964
4768,3408.5197806358337
4769,3409.2128002643585
4770,3409.896819591522
4771,3410.5968391895294
4772,3411.317859649658
4773,3412.0538804531097
4774,3412.856903076172
4775,3413.6469254493713
4776,3414.4449479579926
4777,3415.2359704971313
4778,3415.9759912490845
4779,3416.721012353897
4780,3417.447032928467
4781,3418.1560530662537
4782,3418.8660731315613
4783,3419.5890934467316
4784,3420.3851158618927
4785,3421.1031363010406
4786,3421.846157312393
4787,3422.5831780433655
4788,3423.322198867798
4789,3424.0622198581696
4790,3424.79324054718
4791,3425.5082607269287
4792,3426.2432816028595
4793,3426.9643018245697
4794,3427.6853222846985
4795,3428.424343109131
4796,3429.1393632888794
4797,3429.8333830833435
4798,3430.537402868271
4799,3431.2404227256775
4800,3431.931442260742
4801,3432.64346241951
4802,3433.3574826717377
4803,3434.0675027370453
4804,3434.8045234680176
4805,3435.538544178009
4806,3436.2575645446777
4807,3436.9805850982666
4808,3437.6856050491333
4809,3438.395625114441
4810,3439.0966448783875
4811,3439.822665452957
4812,3440.5786867141724
4813,3441.327708005905
4814,3442.122730255127
4815,3442.838750600815
4816,3443.556770801544
4817,3444.273791074753
4818,3444.9708108901978
4819,3445.6478300094604
4820,3446.3378496170044
4821,3447.0328691005707
4822,3447.7218885421753
4823,3448.3929076194763
4824,3449.046926021576
4825,3449.694944381714
4826,3450.3529629707336
4827,3451.0419824123383
4828,3451.751002550125
4829,3452.4470221996307
4830,3453.132041454315
4831,3453.816060781479
4832,3454.515080690384
4833,3455.2221007347107
4834,3455.945121049881
4835,3456.6771416664124
4836,3457.414162635803
4837,3458.1601836681366
4838,3458.90420460701
4839,3459.629225254059
4840,3460.35524559021
4841,3461.063265800476
4842,3461.7742857933044
4843,3462.479305744171
4844,3463.181325674057
4845,3463.893345594406
4846,3464.6013658046722
4847,3465.3223860263824
4848,3466.041406393051
4849,3466.7794272899628
4850,3467.5144481658936
4851,3468.257469177246
4852,3468.9844896793365
4853,3469.729510784149
4854,3470.4475309848785
4855,3471.1475508213043
4856,3471.864571094513
4857,3472.571590900421
4858,3473.278610944748
4859,3473.9976313114166
4860,3474.726651906967
4861,3475.494673728943
4862,3476.229694366455
4863,3477.0157165527344
4864,3477.8107390403748
4865,3478.5597603321075
4866,3479.295781135559
4867,3480.0438022613525
4868,3480.767822742462
4869,3481.5218439102173
4870,3482.33686709404
4871,3483.1528899669647
4872,3483.9769134521484
4873,3484.8029367923737
4874,3485.559958219528
4875,3486.3319799900055
4876,3487.066000699997
4877,3487.7870211601257
4878,3488.522041797638
4879,3489.245062351227
4880,3489.9510822296143
4881,3490.6761026382446
4882,3491.4631249904633
4883,3492.213146209717
4884,3492.964167356491
4885,3493.682187795639
4886,3494.3582067489624
4887,3495.026225566864
4888,3495.712244987488
4889,3496.4092648029327
4890,3497.0862839221954
4891,3497.780303478241
4892,3498.50532412529
4893,3499.238344669342
4894,3499.9883658885956
4895,3500.8103890419006
4896,3501.8144176006317
4897,3502.865447282791
4898,3503.812474012375
4899,3504.686498641968
4900,3505.521522283554
4901,3506.3305451869965
4902,3507.1505682468414
4903,3508.015592813492
4904,3508.9456191062927
4905,3509.8976459503174
4906,3510.8426728248596
4907,3511.769698858261
4908,3512.6637241840363
4909,3513.5477492809296
4910,3514.415773630142
4911,3515.2797980308533
4912,3516.1658232212067
4913,3517.052848339081
4914,3517.937873363495
4915,3518.813898086548
4916,3519.670922279358
4917,3520.530946493149
4918,3521.399971008301
4919,3522.271995782852
4920,3523.1540207862854
4921,3524.019045114517
4922,3524.8750693798065
4923,3525.7300934791565
4924,3526.564117193222
4925,3527.382140159607
4926,3528.1781628131866
4927,3528.92218375206
4928,3529.7262065410614
4929,3530.5322291851044
4930,3531.3552525043488
4931,3532.193276166916
4932,3533.0393002033234
4933,3533.8263223171234
4934,3534.5913438796997
4935,3535.3223645687103
4936,3536.053385257721
4937,3536.77640581131
4938,3537.509426355362
4939,3538.2764480113983
4940,3539.027469396591
4941,3539.8234918117523
4942,3540.5695128440857
4943,3541.3165340423584
4944,3542.070555448532
4945,3542.7995760440826
4946,3543.531596660614
4947,3544.252617120743
4948,3544.9626371860504
4949,3545.6886575222015
4950,3546.4326786994934
4951,3547.1816997528076
4952,3547.973722219467
4953,3548.739743947983
4954,3549.4807648658752
4955,3550.2317860126495
4956,3550.977807044983
4957,3551.6988275051117
4958,3552.425848007202
4959,3553.1268677711487
4960,3553.8338878154755
4961,3554.566908597946
4962,3555.297929286957
4963,3556.0219497680664
4964,3556.8069717884064
4965,3557.600994348526
4966,3558.41801738739
4967,3559.2360405921936
4968,3560.0110623836517
4969,3560.764083623886
4970,3561.5141048431396
4971,3562.269126176834
4972,3563.025147676468
4973,3563.7781689167023
4974,3564.5481905937195
4975,3565.303211927414
4976,3566.0512330532074
4977,3566.846255540848
4978,3567.5922768115997
4979,3568.352298259735
4980,3569.0913190841675
4981,3569.816339492798
4982,3570.522359609604
4983,3571.2223794460297
4984,3571.9063987731934
4985,3572.600418329239
4986,3573.2964379787445
4987,3574.006458044052
4988,3574.7474789619446
4989,3575.4514989852905
4990,3576.114517688751
4991,3576.770536184311
4992,3577.4425551891327
4993,3578.125574350357
4994,3578.7955935001373
4995,3579.4626121520996
4996,3580.1556317806244
4997,3580.8476514816284
4998,3581.538671016693
4999,3582.2656915187836
5000,3583.011712551117
5001,3583.7287328243256
5002,3584.467753648758
5003,3585.1957743167877
5004,3585.915794610977
5005,3586.66081571579
5006,3587.3828361034393
5007,3588.108856678009
5008,3588.8578777313232
5009,3589.592898607254
5010,3590.3699204921722
5011,3591.1299419403076
5012,3591.9169642925262
5013,3592.7109866142273
5014,3593.45400762558
5015,3594.1960287094116
5016,3594.947049856186
5017,3595.6740703582764
5018,3596.4150915145874
5019,3597.1551122665405
5020,3597.8871331214905
5021,3598.633154153824
5022,3599.3691749572754
5023,3600.0991954803467
5024,3600.8862178325653
5025,3601.6962406635284
5026,3602.476262807846
5027,3603.272285223007
5028,3604.01730632782
5029,3604.782327890396
5030,3605.5393493175507
5031,3606.2773702144623
5032,3607.0123908519745
5033,3607.764412164688
5034,3608.5784351825714
5035,3609.396458387375
5036,3610.2804832458496
5037,3611.135507583618
5038,3611.9035291671753
5039,3612.608549118042
5040,3613.32256937027
5041,3614.0355894565582
5042,3614.752609729767
5043,3615.5046310424805
5044,3616.3286542892456
5045,3617.619690656662
5046,3618.6957211494446
5047,3619.6087470054626
5048,3620.4237699508667
5049,3621.220792531967
5050,3621.9808139801025
5051,3622.7368354797363
5052,3623.519857406616
5053,3624.3378806114197
5054,3625.240906238556
5055,3626.245934486389
5056,3627.2359626293182
5057,3628.1019871234894
5058,3628.9140100479126
5059,3629.6400303840637
5060,3630.317049741745
5061,3630.989068508148
5062,3631.642086982727
5063,3632.281105041504
5064,3633.179130554199
5065,3634.185158967972
5066,3635.117185354233
5067,3635.9992101192474
5068,3636.8252334594727
5069,3637.60325551033
5070,3638.3702771663666
5071,3639.153299331665
5072,3639.9203209877014
5073,3640.71134352684
5074,3641.6933710575104
5075,3642.6973996162415
5076,3643.657426595688
5077,3644.5784528255463
5078,3645.450477361679
5079,3646.288501024246
5080,3647.0735232830048
5081,3647.822544336319
5082,3648.568565607071
5083,3649.2695853710175
5084,3650.01460647583
5085,3650.7366268634796
5086,3651.484647989273
5087,3652.2196686267853
5088,3652.997690677643
5089,3653.736711502075
5090,3654.4847326278687
5091,3655.234753847122
5092,3655.965774536133
5093,3656.6987953186035
5094,3657.450816631317
5095,3658.1918375492096
5096,3658.919857978821
5097,3659.6408784389496
5098,3660.3548986911774
5099,3661.0969195365906
5100,3661.844940662384
5101,3662.6299629211426
5102,3663.386984348297
5103,3664.13400554657
5104,3664.901027202606
5105,3665.632047891617
5106,3666.37006855011
5107,3667.1340901851654
5108,3667.882111310959
5109,3668.6101319789886
5110,3669.3311524391174
5111,3670.039172410965
5112,3670.760192632675
5113,3671.495213508606
5114,3672.2282342910767
5115,3672.975255250931
5116,3673.7382769584656
5117,3674.474297761917
5118,3675.2213187217712
5119,3675.9503395557404
5120,3676.660359621048
5121,3677.3833799362183
5122,3678.109400510788
5123,3678.8354210853577
5124,3679.560441493988
5125,3680.2634613513947
5126,3680.976481437683
5127,3681.692501783371
5128,3682.4175221920013
5129,3683.145542860031
5130,3683.8795635700226
5131,3684.6195845603943
5132,3685.3546051979065
5133,3686.066625356674
5134,3686.7886457443237
5135,3687.5006659030914
5136,3688.214686155319
5137,3688.9297063350677
5138,3689.6417264938354
5139,3690.356746673584
5140,3691.1017677783966
5141,3691.8537888526917
5142,3692.601809978485
5143,3693.390832424164
5144,3694.200855255127
5145,3695.0238785743713
5146,3695.778899908066
5147,3696.541921377182
5148,3697.273942232132
5149,3697.9979627132416
5150,3698.693982362747
