,ECG_peaks
0,0.0
1,0.8450021743774414
2,1.6380040645599365
3,2.4240059852600098
4,3.220008134841919
5,4.040010213851929
6,4.841012001037598
7,5.676014184951782
8,6.492016077041626
9,7.29701828956604
10,8.08102011680603
11,8.884022235870361
12,9.710024118423462
13,10.540026187896729
14,11.338028192520142
15,12.153030157089233
16,12.993032217025757
17,13.837034463882446
18,14.652036428451538
19,15.471038579940796
20,16.28704047203064
21,17.06504249572754
22,17.828044414520264
23,18.62104630470276
24,19.414048194885254
25,20.248050451278687
26,21.092052459716797
27,21.954054594039917
28,22.779056549072266
29,23.594058752059937
30,24.40506076812744
31,25.233062744140625
32,26.04406476020813
33,26.862066745758057
34,27.700068950653076
35,28.57007098197937
36,29.435073137283325
37,30.292075395584106
38,31.130077362060547
39,31.92807936668396
40,32.70608139038086
41,33.463083267211914
42,34.211085081100464
43,34.95808696746826
44,35.721088886260986
45,36.56109094619751
46,37.41209292411804
47,38.23509502410889
48,38.99109697341919
49,39.7800989151001
50,40.67810106277466
51,41.56710338592529
52,42.46210551261902
53,43.35310769081116
54,44.2291100025177
55,45.07811212539673
56,45.92111420631409
57,46.734116077423096
58,47.54011821746826
59,48.36312007904053
60,49.223122358322144
61,50.10112452507019
62,50.972126722335815
63,51.78212857246399
64,52.54913067817688
65,53.312132596969604
66,54.06913447380066
67,54.80113625526428
68,55.53113794326782
69,56.258139848709106
70,56.94714140892029
71,57.616143226623535
72,58.27314472198486
73,58.92214632034302
74,59.568148136138916
75,60.19714951515198
76,60.81715106964111
77,61.428152561187744
78,62.02615404129028
79,62.6171555519104
80,63.19915699958801
81,63.7741584777832
82,64.34515976905823
83,64.90716123580933
84,65.46916270256042
85,66.02416396141052
86,66.57216548919678
87,67.11616683006287
88,67.65616822242737
89,68.19316935539246
90,68.72417068481445
91,69.25017213821411
92,69.78017330169678
93,70.31917476654053
94,70.88517618179321
95,71.46317768096924
96,72.07617902755737
97,72.75218081474304
98,73.47318243980408
99,74.2211844921112
100,74.94418621063232
101,75.62518787384033
102,76.27618956565857
103,76.91419100761414
104,77.56619262695312
105,78.21919441223145
106,78.86219596862793
107,79.49819755554199
108,80.11619901657104
109,80.721200466156
110,81.31920194625854
111,81.91220355033875
112,82.50520491600037
113,83.11820650100708
114,83.75420808792114
115,84.39620971679688
116,85.02721118927002
117,85.64421272277832
118,86.26121425628662
119,86.86221575737
120,87.45121717453003
121,88.03321862220764
122,88.60622024536133
123,89.17522144317627
124,89.73722290992737
125,90.29822444915771
126,90.879225730896
127,91.50222730636597
128,92.24722909927368
129,92.94823098182678
130,93.68523263931274
131,94.4092345237732
132,95.15123629570007
133,95.85523819923401
134,96.54623985290527
135,97.22924160957336
136,97.91824316978455
137,98.61224508285522
138,99.29824662208557
139,99.98924851417542
140,100.70125007629395
141,101.44125199317932
142,102.18625378608704
143,102.9522557258606
144,103.76925778388977
145,104.63525986671448
146,105.50126218795776
147,106.33826422691345
148,107.17426633834839
149,107.9412682056427
150,108.67026996612549
151,109.38027167320251
152,110.06827354431152
153,110.75627517700195
154,111.45327687263489
155,112.16027855873108
156,112.8592803478241
157,113.53228211402893
158,114.1922836303711
159,114.83328533172607
160,115.48328685760498
161,116.15928864479065
162,116.85129022598267
163,117.53429198265076
164,118.20729374885559
165,118.87029528617859
166,119.52529692649841
167,120.1662986278534
168,120.78730010986328
169,121.39730167388916
170,121.99630308151245
171,122.58630442619324
172,123.17730593681335
173,123.77030754089355
174,124.37630891799927
175,124.99931049346924
176,125.6263120174408
177,126.24831366539001
178,126.87631511688232
179,127.52231669425964
180,128.20131850242615
181,128.89732027053833
182,129.6193220615387
183,130.3953239917755
184,131.16732597351074
185,131.94132781028748
186,132.76232981681824
187,133.57533192634583
188,134.3283336162567
189,135.073335647583
190,135.846337556839
191,136.6173393726349
192,137.3713412284851
193,138.13534307479858
194,138.95834517478943
195,139.7663471698761
196,140.61834931373596
197,141.4943516254425
198,142.3003535270691
199,143.1023554801941
200,143.90135741233826
201,144.71235942840576
202,145.52536153793335
203,146.39636373519897
204,147.31936597824097
205,148.18436813354492
206,149.0253701210022
207,149.8803722858429
208,150.77337455749512
209,151.65337681770325
210,152.5113787651062
211,153.397381067276
212,154.199383020401
213,155.0453851222992
214,155.83938717842102
215,156.60938906669617
216,157.33839082717896
217,158.1283929347992
218,159.0383951663971
219,159.83539700508118
220,160.67639923095703
221,161.6514015197754
222,162.5594038963318
223,163.35240578651428
224,164.21140789985657
225,165.14741015434265
226,165.98041224479675
227,166.78441429138184
228,167.71041655540466
229,168.69141912460327
230,169.6264214515686
231,170.52642369270325
232,171.3734257221222
233,172.21142768859863
234,173.02542972564697
235,173.8374319076538
236,174.65543389320374
237,175.47543597221375
238,176.29243803024292
239,177.0984399318695
240,177.87944197654724
241,178.65044379234314
242,179.41344571113586
243,180.16744756698608
244,180.91944932937622
245,181.66345119476318
246,182.47545337677002
247,183.35745549201965
248,184.26045775413513
249,185.13045978546143
250,185.95546197891235
251,186.7914640903473
252,187.63446617126465
253,188.52746844291687
254,189.36247038841248
255,190.17247247695923
256,191.143474817276
257,192.1794774532318
258,193.02547955513
259,193.85248160362244
260,194.71848368644714
261,195.691486120224
262,196.6764886379242
263,197.62549090385437
264,198.55949330329895
265,199.5254955291748
266,200.43449783325195
267,201.35850024223328
268,202.27850246429443
269,203.176504611969
270,204.1025071144104
271,204.99850916862488
272,205.93251156806946
273,206.801513671875
274,207.70551586151123
275,208.59551811218262
276,209.4125201702118
277,210.20852208137512
278,210.99452424049377
279,211.7685260772705
280,212.52552795410156
281,213.23652958869934
282,213.92053151130676
283,214.58753299713135
284,215.24453473091125
285,215.90353631973267
286,216.56153798103333
287,217.2085394859314
288,217.85054111480713
289,218.4865427017212
290,219.12654423713684
291,219.76754593849182
292,220.40254759788513
293,221.03254914283752
294,221.66555070877075
295,222.3110523223877
296,222.95655393600464
297,223.59955549240112
298,224.2335569858551
299,224.85755848884583
300,225.47256016731262
301,226.08556151390076
302,226.69356322288513
303,227.31456470489502
304,227.94756627082825
305,228.58256793022156
306,229.22056937217712
307,229.85057091712952
308,230.48157262802124
309,231.1215741634369
310,231.77257585525513
311,232.4325773715973
312,233.0895791053772
313,233.7705807685852
314,234.46358251571655
315,235.17958426475525
316,235.9095859527588
317,236.69258785247803
318,237.48258996009827
319,238.24259185791016
320,239.03759384155273
321,239.84259581565857
322,240.65759778022766
323,241.50759983062744
324,242.3376019001007
325,243.19960403442383
326,244.07660627365112
327,244.9336085319519
328,245.80561065673828
329,246.6696126461029
330,247.49561476707458
331,248.38461709022522
332,249.3206193447113
333,250.2416214942932
334,251.17462396621704
335,252.10462617874146
336,253.0316286087036
337,253.90763068199158
338,254.86063313484192
339,255.81963539123535
340,256.67263770103455
341,257.5946397781372
342,258.6176424026489
343,259.49764466285706
344,260.41864681243896
345,261.37864923477173
346,262.24565148353577
347,263.24165391921997
348,264.20465636253357
349,265.1086585521698
350,266.04866099357605
351,266.9686632156372
352,267.8226652145386
353,268.8146677017212
354,269.8376703262329
355,270.7566726207733
356,271.6446747779846
357,272.58867716789246
358,273.56667947769165
359,274.4686818122864
360,275.4206840991974
361,276.4476866722107
362,277.3686890602112
363,278.2816913127899
364,279.2396936416626
365,280.16169595718384
366,281.13169836997986
367,282.07270073890686
368,283.0387029647827
369,283.93170523643494
370,284.78970742225647
371,285.618709564209
372,286.39571142196655
373,287.16271328926086
374,287.9417152404785
375,288.7217171192169
376,289.52271914482117
377,290.32872128486633
378,291.1137230396271
379,291.8987250328064
380,292.6657269001007
381,293.4437289237976
382,294.2187309265137
383,294.9707326889038
384,295.7107346057892
385,296.4667363166809
386,297.25173830986023
387,298.0977404117584
388,298.9147424697876
389,299.701744556427
390,300.4657464027405
391,301.2127482891083
392,301.96574997901917
393,302.7267520427704
394,303.54375410079956
395,304.3887560367584
396,305.1907579898834
397,306.0097601413727
398,306.8337621688843
399,307.6387641429901
400,308.4517662525177
401,309.25676822662354
402,310.0937702655792
403,310.9307723045349
404,311.75577449798584
405,312.5617763996124
406,313.3477783203125
407,314.11978030204773
408,314.8967821598053
409,315.75478434562683
410,316.6757867336273
411,317.54478883743286
412,318.39279079437256
413,319.21679282188416
414,319.999794960022
415,320.8047969341278
416,321.6347990036011
417,322.4658010005951
418,323.35080313682556
419,324.2798054218292
420,325.1458077430725
421,325.9448096752167
422,326.7278115749359
423,327.5048134326935
424,328.31981563568115
425,329.14781761169434
426,330.0348198413849
427,330.9278221130371
428,331.7608242034912
429,332.5828261375427
430,333.4198281764984
431,334.24383020401
432,335.0508322715759
433,335.8678343296051
434,336.7178363800049
435,337.52183842658997
436,338.3508405685425
437,339.19584250450134
438,340.0228445529938
439,340.81384658813477
440,341.61584854125977
441,342.44185066223145
442,343.2808527946472
443,344.1268548965454
444,345.0078570842743
445,345.89685916900635
446,346.72586131095886
447,347.5378632545471
448,348.3288652896881
449,349.0978672504425
450,349.8688690662384
451,350.66787099838257
452,351.50487303733826
453,352.3608753681183
454,353.25487756729126
455,354.1298797130585
456,354.94888162612915
457,355.7568836212158
458,356.55588579177856
459,357.36588764190674
460,358.1918897628784
461,359.0598919391632
462,359.92489409446716
463,360.7688961029053
464,361.5778982639313
465,362.3939001560211
466,363.1779022216797
467,363.95890402793884
468,364.7779061794281
469,365.62290811538696
470,366.46191024780273
471,367.28191232681274
472,368.09791445732117
473,368.895916223526
474,369.6849184036255
475,370.47492027282715
476,371.2849223613739
477,372.0889241695404
478,372.8959262371063
479,373.7179284095764
480,374.52493023872375
481,375.2799322605133
482,376.0019340515137
483,376.71093583106995
484,377.43393754959106
485,378.1949393749237
486,378.9789414405823
487,379.6909432411194
488,380.3899447917938
489,381.0689465999603
490,381.7469482421875
491,382.43094992637634
492,383.1239516735077
493,383.8219532966614
494,384.5099551677704
495,385.19495677948
496,385.8739585876465
497,386.56696033477783
498,387.273962020874
499,387.99296379089355
500,388.716965675354
501,389.4549674987793
502,390.1839692592621
503,390.8959710597992
504,391.59997272491455
505,392.3009743690491
506,393.0419762134552
507,393.8029782772064
508,394.55698013305664
509,395.29798197746277
510,396.0319836139679
511,396.76898550987244
512,397.5109872817993
513,398.2419891357422
514,398.9339909553528
515,399.6169927120209
516,400.3099944591522
517,400.99599599838257
518,401.66999769210815
519,402.33999943733215
520,403.0040011405945
521,403.6980028152466
522,404.4210045337677
523,405.159006357193
524,405.91200828552246
525,406.6770100593567
526,407.40601205825806
527,408.1190137863159
528,408.83401560783386
529,409.5350172519684
530,410.21501898765564
531,410.8800206184387
532,411.5290222167969
533,412.21602392196655
534,413.1850264072418
535,413.94602823257446
536,414.6520299911499
537,415.3260316848755
538,415.9900333881378
539,416.6530349254608
540,417.3290367126465
541,418.0230383872986
542,418.729040145874
543,419.41904187202454
544,420.1020436286926
545,420.78604531288147
546,421.47304701805115
547,422.1610486507416
548,422.85005044937134
549,423.5430519580841
550,424.23405385017395
551,424.92805552482605
552,425.62405729293823
553,426.3300590515137
554,427.0400607585907
555,427.7480626106262
556,428.4640643596649
557,429.1790659427643
558,429.86006784439087
559,430.5280694961548
560,431.1960711479187
561,431.87807273864746
562,432.5890746116638
563,433.2930762767792
564,433.9920780658722
565,434.6770796775818
566,435.36408138275146
567,436.05508303642273
568,436.73208475112915
569,437.4210865497589
570,438.10908818244934
571,438.81908988952637
572,439.52609181404114
573,440.2370934486389
574,440.92709517478943
575,441.6230969429016
576,442.3020987510681
577,442.9841003417969
578,443.66610193252563
579,444.3471038341522
580,445.0361053943634
581,445.7121071815491
582,446.38610887527466
583,447.07111048698425
584,447.75411224365234
585,448.42811393737793
586,449.1121156215668
587,449.792117357254
588,450.4561188220978
589,451.12112045288086
590,451.7811222076416
591,452.43012380599976
592,453.07112550735474
593,453.7161269187927
594,454.34912848472595
595,454.97913002967834
596,455.6151316165924
597,456.260133266449
598,456.8991348743439
599,457.52913641929626
600,458.1621379852295
601,458.78713965415955
602,459.41314125061035
603,460.0481426715851
604,460.6961443424225
605,461.3551459312439
606,462.0231475830078
607,462.7041492462158
608,463.3841509819031
609,464.06915283203125
610,464.7551543712616
611,465.43315601348877
612,466.1011576652527
613,466.77015948295593
614,467.44716119766235
615,468.11216282844543
616,468.76716446876526
617,469.43016600608826
618,470.101167678833
619,470.75916934013367
620,471.4101710319519
621,472.05717253685
622,472.7211742401123
623,473.3861758708954
624,474.04417753219604
625,474.69817900657654
626,475.36018085479736
627,476.0311825275421
628,476.6941840648651
629,477.35218572616577
630,477.99718737602234
631,478.65218901634216
632,479.3011906147003
633,479.93819212913513
634,480.5631937980652
635,481.19019532203674
636,481.82219672203064
637,482.4601984024048
638,483.10019993782043
639,483.75720167160034
640,484.43620324134827
641,485.11020493507385
642,485.77520656585693
643,486.43220829963684
644,487.08620977401733
645,487.7362115383148
646,488.3792130947113
647,489.02121472358704
648,489.6662163734436
649,490.3052179813385
650,490.9512195587158
651,491.611221075058
652,492.2792227268219
653,492.9362244606018
654,493.5682260990143
655,494.19522762298584
656,494.81922912597656
657,495.44923067092896
658,496.08123230934143
659,496.7172338962555
660,497.3502354621887
661,497.99023699760437
662,498.6402385234833
663,499.30724024772644
664,499.9832420349121
665,500.6922435760498
666,501.40524554252625
667,502.1242473125458
668,502.83124899864197
669,503.55825090408325
670,504.2922525405884
671,505.0392544269562
672,505.8022563457489
673,506.55725836753845
674,507.3222601413727
675,508.1332621574402
676,508.9052641391754
677,509.71926617622375
678,510.5612680912018
679,511.42627024650574
680,512.2472724914551
681,513.0642743110657
682,513.9132764339447
683,514.750278711319
684,515.592280626297
685,516.4612829685211
686,517.364284992218
687,518.2122871875763
688,519.078289270401
689,519.9412915706635
690,520.7772936820984
691,521.6312956809998
692,522.5162978172302
693,523.3912999629974
694,524.2523021697998
695,525.0953042507172
696,525.9343063831329
697,526.7983086109161
698,527.6383106708527
699,528.4723126888275
700,529.3133146762848
701,530.1363167762756
702,530.950318813324
703,531.8193209171295
704,532.7243232727051
705,533.605325460434
706,534.5103275775909
707,535.3853299617767
708,536.2343318462372
709,537.0683341026306
710,537.9733362197876
711,538.8553385734558
712,539.7383406162262
713,540.5983428955078
714,541.4433448314667
715,542.293347120285
716,543.1373491287231
717,543.9823513031006
718,544.7903532981873
719,545.5563549995422
720,546.3173570632935
721,547.1153590679169
722,547.9993612766266
723,548.8323633670807
724,549.6583652496338
725,550.5173673629761
726,551.3843696117401
727,552.2103717327118
728,553.0003736019135
729,553.8033754825592
730,554.6113777160645
731,555.4473795890808
732,556.3053817749023
733,557.1633839607239
734,557.9833860397339
735,558.8303880691528
736,559.6623902320862
737,560.4893922805786
738,561.285394191742
739,562.0763962268829
740,562.8523981571198
741,563.6284000873566
742,564.403401851654
743,565.2234039306641
744,566.0284059047699
745,566.8554079532623
746,567.7024102210999
747,568.5184121131897
748,569.2814140319824
749,570.0254158973694
750,570.7804176807404
751,571.5804197788239
752,572.3844218254089
753,573.246423959732
754,574.1274261474609
755,575.0294282436371
756,575.8574304580688
757,576.667432308197
758,577.4804344177246
759,578.3264365196228
760,579.1664385795593
761,580.0304408073425
762,580.8724427223206
763,581.7214448451996
764,582.5654470920563
765,583.4084491729736
766,584.2494511604309
767,585.1084532737732
768,586.0024554729462
769,586.9254579544067
770,587.766459941864
771,588.6004619598389
772,589.404464006424
773,590.1974658966064
774,590.9964680671692
775,591.841470003128
776,592.7234723567963
777,593.5614743232727
778,594.4004764556885
779,595.2394785881042
780,596.060480594635
781,596.8814826011658
782,597.7014846801758
783,598.4804866313934
784,599.2434885501862
785,600.001490354538
786,600.7384922504425
787,601.437493801117
788,602.1134955883026
789,602.7974972724915
790,603.5174989700317
791,604.3065011501312
792,605.1425030231476
793,606.00550532341
794,606.8405072689056
795,607.7065095901489
796,608.561511516571
797,609.370513677597
798,610.1785156726837
799,610.956517457962
800,611.7605195045471
801,612.5795216560364
802,613.4105236530304
803,614.2685258388519
804,615.0765278339386
805,615.8615298271179
806,616.647531747818
807,617.4595336914062
808,618.2705357074738
809,619.1065378189087
810,619.8975398540497
811,620.7015416622162
812,621.5055437088013
813,622.3465459346771
814,623.1565477848053
815,623.9615497589111
816,624.7835519313812
817,625.5875539779663
818,626.3685557842255
819,627.1575577259064
820,627.9585597515106
821,628.8045618534088
822,629.6485641002655
823,630.5395662784576
824,631.3985683917999
825,632.2075703144073
826,633.0105724334717
827,633.8225743770599
828,634.64257645607
829,635.4855785369873
830,636.3095805644989
831,637.1565825939178
832,638.0065846443176
833,638.8735868930817
834,639.7045888900757
835,640.570591211319
836,641.4355933666229
837,642.2625954151154
838,643.0845973491669
839,643.9005994796753
840,644.7826015949249
841,645.6036036014557
842,646.3976056575775
843,647.1766076087952
844,647.9576094150543
845,648.7276113033295
846,649.5136132240295
847,650.3096153736115
848,651.1016173362732
849,651.9006192684174
850,652.6916213035583
851,653.4646232128143
852,654.214625120163
853,654.9786269664764
854,655.7306287288666
855,656.4536304473877
856,657.1546323299408
857,657.9006340503693
858,658.6906361579895
859,659.5076382160187
860,660.3426401615143
861,661.1486423015594
862,661.9636442661285
863,662.7466461658478
864,663.5286481380463
865,664.3066501617432
866,665.1256520748138
867,665.9206540584564
868,666.7256560325623
869,667.5576581954956
870,668.4236602783203
871,669.2736623287201
872,670.1006643772125
873,670.9696667194366
874,671.8446688652039
875,672.683670759201
876,673.526673078537
877,674.4056751728058
878,675.2936773300171
879,676.1396794319153
880,677.0086815357208
881,677.8926837444305
882,678.7936861515045
883,679.6396882534027
884,680.5346903800964
885,681.5056927204132
886,682.4586951732635
887,683.314697265625
888,684.145699262619
889,684.9847013950348
890,685.9027037620544
891,686.7527058124542
892,687.5957078933716
893,688.4587099552155
894,689.3287122249603
895,690.1707143783569
896,691.014716386795
897,691.8827185630798
898,692.7327206134796
899,693.6127228736877
900,694.5077250003815
901,695.3817272186279
902,696.212729215622
903,697.0727314949036
904,697.9807336330414
905,698.9217360019684
906,699.8007383346558
907,700.7457406520844
908,701.6487429141998
909,702.5187449455261
910,703.3627471923828
911,704.2527492046356
912,705.1677515506744
913,706.0897538661957
914,707.0737562179565
915,708.0277585983276
916,708.8697607517242
917,709.7227628231049
918,710.6237649917603
919,711.498767375946
920,712.3797695636749
921,713.3217718601227
922,714.2997741699219
923,715.2467765808105
924,716.1097786426544
925,716.9707808494568
926,717.8447830677032
927,718.6917850971222
928,719.5697872638702
929,720.511789560318
930,721.4317920207977
931,722.317794084549
932,723.2077963352203
933,724.1237986087799
934,724.9648008346558
935,725.7798027992249
936,726.5988047122955
937,727.4338068962097
938,728.263808965683
939,729.1108109951019
940,729.9828131198883
941,730.8608152866364
942,731.6828174591064
943,732.4878194332123
944,733.3078215122223
945,734.1388235092163
946,734.9638254642487
947,735.8228278160095
948,736.7178299427032
949,737.6388320922852
950,738.4948344230652
951,739.3428363800049
952,740.1908385753632
953,741.0478405952454
954,741.8668427467346
955,742.7068448066711
956,743.5798468589783
957,744.4648492336273
958,745.3328514099121
959,746.2508535385132
960,747.1328558921814
961,747.9598579406738
962,748.7518599033356
963,749.542861700058
964,750.2838635444641
965,751.0168654918671
966,751.7518672943115
967,752.5038690567017
968,753.2698709964752
969,754.0218729972839
970,754.7638747692108
971,755.488876581192
972,756.1908783912659
973,756.8928799629211
974,757.6048817634583
975,758.3428835868835
976,759.140885591507
977,759.9838876724243
978,760.8088898658752
979,761.6318917274475
980,762.4548938274384
981,763.3028960227966
982,764.1558980941772
983,764.9939000606537
984,765.8859024047852
985,766.8269047737122
986,767.7489070892334
987,768.5949091911316
988,769.4529111385345
989,770.3259134292603
990,771.2219157218933
991,772.1129179000854
992,773.039920091629
993,773.9689223766327
994,774.8999247550964
995,775.7599267959595
996,776.6589291095734
997,777.6159315109253
998,778.6019339561462
999,779.5559363365173
1000,780.4169385433197
1001,781.3189406394958
1002,782.2699429988861
1003,783.3129456043243
1004,784.2679479122162
1005,785.1769502162933
1006,786.1269526481628
1007,787.1029551029205
1008,788.074957370758
1009,788.9969596862793
1010,789.9689621925354
1011,790.9479646682739
1012,791.9369671344757
1013,792.8209693431854
1014,793.747971534729
1015,794.6909739971161
1016,795.6619763374329
1017,796.581978559494
1018,797.5859811306
1019,798.6149835586548
1020,799.6399862766266
1021,800.5979886054993
1022,801.4849908351898
1023,802.4349932670593
1024,803.4339957237244
1025,804.373997926712
1026,805.2980003356934
1027,806.2780027389526
1028,807.2760052680969
1029,808.1930074691772
1030,809.0420095920563
1031,809.8870117664337
1032,810.7740137577057
1033,811.6810162067413
1034,812.5410182476044
1035,813.4430205821991
1036,814.3880228996277
1037,815.3320252895355
1038,816.2030272483826
1039,817.0920295715332
1040,818.0290319919586
1041,818.912034034729
1042,819.7570362091064
1043,820.6210384368896
1044,821.515540599823
1045,822.4100427627563
1046,823.3070449829102
1047,824.2310473918915
1048,825.145049571991
1049,826.1010520458221
1050,827.085054397583
1051,827.9940567016602
1052,828.8880589008331
1053,829.8180611133575
1054,830.7240633964539
1055,831.6280655860901
1056,832.6160681247711
1057,833.6040706634521
1058,834.5360729694366
1059,835.455075263977
1060,836.4170775413513
1061,837.2950797080994
1062,838.1440818309784
1063,839.0470840930939
1064,839.9910864830017
1065,840.9070887565613
1066,841.8180909156799
1067,842.7730934619904
1068,843.7540957927704
1069,844.6640980243683
1070,845.6081004142761
1071,846.5611028671265
1072,847.4371049404144
1073,848.3231072425842
1074,849.2331094741821
1075,850.1971118450165
1076,851.0901141166687
1077,851.9851162433624
1078,852.9151184558868
1079,853.8231208324432
1080,854.6881229877472
1081,855.5621252059937
1082,856.4841272830963
1083,857.4061295986176
1084,858.3061318397522
1085,859.2351341247559
1086,860.1941366195679
1087,861.1801390647888
1088,862.071141242981
1089,862.9621434211731
1090,863.8631458282471
1091,864.768147945404
1092,865.6291501522064
1093,866.4991521835327
1094,867.4141545295715
1095,868.3531568050385
1096,869.3011591434479
1097,870.1931614875793
1098,871.0541636943817
1099,871.9701659679413
1100,872.9041681289673
1101,873.7991704940796
1102,874.6801726818085
1103,875.6171748638153
1104,876.5711772441864
1105,877.5411796569824
1106,878.4641819000244
1107,879.3691842556
1108,880.2801864147186
1109,881.215188741684
1110,882.1121909618378
1111,883.0331933498383
1112,884.0051958560944
1113,884.963198184967
1114,885.8622002601624
1115,886.7972025871277
1116,887.7262051105499
1117,888.6312072277069
1118,889.5892095565796
1119,890.5342118740082
1120,891.4722142219543
1121,892.3292164802551
1122,893.2042186260223
1123,894.1202208995819
1124,895.0542232990265
1125,895.9312252998352
1126,896.8372275829315
1127,897.7942299842834
1128,898.8222324848175
1129,899.8332350254059
1130,900.7262372970581
1131,901.6472396850586
1132,902.5682418346405
1133,903.48224401474
1134,904.3642463684082
1135,905.2892487049103
1136,906.2682509422302
1137,907.2062532901764
1138,908.0882556438446
1139,909.0262579917908
1140,910.0242602825165
1141,910.9942626953125
1142,911.9902653694153
1143,912.9972677230835
1144,914.0082702636719
1145,914.9832727909088
1146,915.8942749500275
1147,916.8612773418427
1148,917.8782799243927
1149,918.9302825927734
1150,919.9252848625183
1151,920.8782873153687
1152,921.8612897396088
1153,922.8662922382355
1154,923.7682945728302
1155,924.7632970809937
1156,925.7412993907928
1157,926.6333017349243
1158,927.5633039474487
1159,928.5373063087463
1160,929.4863088130951
1161,930.3563108444214
1162,931.2473130226135
1163,932.1783154010773
1164,933.1123178005219
1165,933.9793198108673
1166,934.8863220214844
1167,935.8303244113922
1168,936.7423267364502
1169,937.6673290729523
1170,938.5193312168121
1171,939.3563332557678
1172,940.1953353881836
1173,941.0433373451233
1174,941.8753395080566
1175,942.747341632843
1176,943.6233439445496
1177,944.4533460140228
1178,945.2853479385376
1179,946.1623501777649
1180,947.0593523979187
1181,947.9143545627594
1182,948.7473566532135
1183,949.6183586120605
1184,950.5153610706329
1185,951.42236328125
1186,952.2673652172089
1187,953.1563675403595
1188,954.0663697719574
1189,954.948371887207
1190,955.8263740539551
1191,956.7183763980865
1192,957.6713786125183
1193,958.6103811264038
1194,959.5293834209442
1195,960.4773857593536
1196,961.4853882789612
1197,962.4233906269073
1198,963.3043928146362
1199,964.2043950557709
1200,965.0853972434998
1201,965.9913992881775
1202,966.8324015140533
1203,967.6454033851624
1204,968.4824056625366
1205,969.4234080314636
1206,970.3754103183746
1207,971.3314125537872
1208,972.2784149646759
1209,973.221417427063
1210,974.0794193744659
1211,974.9694216251373
1212,975.8444237709045
1213,976.6574258804321
1214,977.4254276752472
1215,978.1604297161102
1216,978.8784313201904
1217,979.5734331607819
1218,980.25643491745
1219,980.9364364147186
1220,981.6194381713867
1221,982.3124399185181
1222,983.0034415721893
1223,983.6934432983398
1224,984.371444940567
1225,985.0434467792511
1226,985.7134482860565
1227,986.3804500102997
1228,987.044451713562
1229,987.714453458786
1230,988.3784549236298
1231,989.0464565753937
1232,989.7184584140778
1233,990.4014599323273
1234,991.0914616584778
1235,991.7864634990692
1236,992.5004651546478
1237,993.2524671554565
1238,994.0284690856934
1239,994.7994709014893
1240,995.5574729442596
1241,996.3224747180939
1242,997.1124765872955
1243,997.9264786243439
1244,998.7044806480408
1245,999.4414825439453
1246,1000.1674842834473
1247,1000.9064860343933
1248,1001.6674880981445
1249,1002.5164902210236
1250,1003.3974924087524
1251,1004.2354943752289
1252,1005.0884964466095
1253,1005.9364986419678
1254,1006.8545007705688
1255,1007.7795031070709
1256,1008.6445052623749
1257,1009.5735075473785
1258,1010.539510011673
1259,1011.5125124454498
1260,1012.4715149402618
1261,1013.3765170574188
1262,1014.2375192642212
1263,1015.1505215167999
1264,1016.160523891449
1265,1017.2155265808105
1266,1018.257529258728
1267,1019.2245316505432
1268,1020.1025338172913
1269,1021.0215361118317
1270,1022.014538526535
1271,1023.1165413856506
1272,1024.0835437774658
1273,1025.04354596138
1274,1026.0585486888885
1275,1027.0855510234833
1276,1028.1465537548065
1277,1029.1845562458038
1278,1030.1205587387085
1279,1031.0615611076355
1280,1032.051563501358
1281,1032.9855659008026
1282,1033.8805680274963
1283,1034.7895703315735
1284,1035.752572774887
1285,1036.8195753097534
1286,1037.7385776042938
1287,1038.7115800380707
1288,1039.7125825881958
1289,1040.7175850868225
1290,1041.618587255478
1291,1042.5405895709991
1292,1043.4585916996002
1293,1044.407594203949
1294,1045.343596458435
1295,1046.1965985298157
1296,1047.0696008205414
1297,1047.9726030826569
1298,1048.9096052646637
1299,1049.8226075172424
1300,1050.7756099700928
1301,1051.7486124038696
1302,1052.725614786148
1303,1053.6096169948578
1304,1054.50261926651
1305,1055.4456214904785
1306,1056.4266240596771
1307,1057.2936260700226
1308,1058.1916284561157
1309,1059.129630804062
1310,1060.1326332092285
1311,1061.0146353244781
1312,1061.9386377334595
1313,1062.883640050888
1314,1063.8456423282623
1315,1064.7436447143555
1316,1065.6646468639374
1317,1066.5636491775513
1318,1067.557651758194
1319,1068.4866540431976
1320,1069.3666560649872
1321,1070.2166583538055
1322,1071.1746606826782
1323,1072.1076629161835
1324,1072.960664987564
1325,1073.8396673202515
1326,1074.7306694984436
1327,1075.6256716251373
1328,1076.4656736850739
1329,1077.3206758499146
1330,1078.1716780662537
1331,1079.025680065155
1332,1079.8556821346283
1333,1080.7206842899323
1334,1081.6376867294312
1335,1082.5156888961792
1336,1083.3416907787323
1337,1084.1626930236816
1338,1085.021695137024
1339,1085.8866972923279
1340,1086.6926991939545
1341,1087.5027012825012
1342,1088.318703174591
1343,1089.1287052631378
1344,1089.9057071208954
1345,1090.6807091236115
1346,1091.4687111377716
1347,1092.266713142395
1348,1093.0297148227692
1349,1093.7647168636322
1350,1094.480718612671
1351,1095.192720413208
1352,1095.9077219963074
1353,1096.6197237968445
1354,1097.3217256069183
1355,1098.035727262497
1356,1098.7967293262482
1357,1099.5927312374115
1358,1100.390733242035
1359,1101.1387350559235
1360,1101.8777368068695
1361,1102.614738702774
1362,1103.363740682602
1363,1104.1287424564362
1364,1104.8987443447113
1365,1105.6417462825775
1366,1106.378748178482
1367,1107.1257498264313
1368,1107.8657517433167
1369,1108.6647536754608
1370,1109.452755689621
1371,1110.2057576179504
1372,1110.9437594413757
1373,1111.6697611808777
1374,1112.4017629623413
1375,1113.1707649230957
1376,1113.93776679039
1377,1114.7087688446045
1378,1115.4917707443237
1379,1116.2867727279663
1380,1117.092774629593
1381,1117.8607766628265
1382,1118.5997784137726
1383,1119.3297803401947
1384,1120.0467820167542
1385,1120.7517838478088
1386,1121.458785533905
1387,1122.1957874298096
1388,1122.9567892551422
1389,1123.70379114151
1390,1124.431792974472
1391,1125.1607947349548
1392,1125.8757965564728
1393,1126.5797982215881
1394,1127.2888000011444
1395,1128.0028018951416
1396,1128.7128036022186
1397,1129.421805381775
1398,1130.1518070697784
1399,1130.9148089885712
1400,1131.6788108348846
1401,1132.4258127212524
1402,1133.1658146381378
1403,1133.9108164310455
1404,1134.6698184013367
1405,1135.4218201637268
1406,1136.1768221855164
1407,1136.9438240528107
1408,1137.7468259334564
1409,1138.5338280200958
1410,1139.3218297958374
1411,1140.0998318195343
1412,1140.8948338031769
1413,1141.698835849762
1414,1142.4988377094269
1415,1143.2958397865295
1416,1144.1098418235779
1417,1144.9348437786102
1418,1145.7588458061218
1419,1146.5508477687836
1420,1147.3418498039246
1421,1148.1808519363403
1422,1149.0578541755676
1423,1149.9108562469482
1424,1150.778858423233
1425,1151.6488604545593
1426,1152.4918625354767
1427,1153.310864686966
1428,1154.1158666610718
1429,1154.945868730545
1430,1155.7698707580566
1431,1156.6008727550507
1432,1157.4448750019073
1433,1158.328877210617
1434,1159.1768791675568
1435,1160.0008811950684
1436,1160.837883234024
1437,1161.6588854789734
1438,1162.453887462616
1439,1163.2388892173767
1440,1164.0198912620544
1441,1164.819893360138
1442,1165.6178951263428
1443,1166.4428973197937
1444,1167.2928993701935
1445,1168.1319015026093
1446,1168.936903476715
1447,1169.7359054088593
1448,1170.511907339096
1449,1171.2679092884064
1450,1172.0119111537933
1451,1172.7939131259918
1452,1173.6629152297974
1453,1174.502917289734
1454,1175.3509194850922
1455,1176.2239215373993
1456,1177.0849237442017
1457,1177.9159257411957
1458,1178.7199277877808
1459,1179.5179297924042
1460,1180.3329317569733
1461,1181.1469337940216
1462,1181.9639358520508
1463,1182.8009378910065
1464,1183.6379399299622
1465,1184.4489419460297
1466,1185.2799441814423
1467,1186.1199462413788
1468,1186.9539482593536
1469,1187.7689502239227
1470,1188.5819523334503
1471,1189.416954278946
1472,1190.2719564437866
1473,1191.10195851326
1474,1191.9439606666565
1475,1192.794962644577
1476,1193.6219646930695
1477,1194.4469668865204
1478,1195.2729687690735
1479,1196.0999710559845
1480,1196.9229729175568
1481,1197.7589750289917
1482,1198.6209771633148
1483,1199.4819793701172
1484,1200.313981294632
1485,1201.151983499527
1486,1202.0269856452942
1487,1202.883987903595
1488,1203.709989786148
1489,1204.5649919509888
1490,1205.48899435997
1491,1206.4419965744019
1492,1207.308998823166
1493,1208.1670010089874
1494,1209.0140030384064
1495,1209.8710050582886
1496,1210.7170071601868
1497,1211.5680093765259
1498,1212.43501162529
1499,1213.3140137195587
1500,1214.1790158748627
1501,1215.0770180225372
1502,1215.9930202960968
1503,1216.8630225658417
1504,1217.6810245513916
1505,1218.4760265350342
1506,1219.265028476715
1507,1220.0500304698944
1508,1220.8470323085785
1509,1221.6720345020294
1510,1222.5810368061066
1511,1223.4290387630463
1512,1224.2930409908295
1513,1225.1730432510376
1514,1226.0500452518463
1515,1226.871047258377
1516,1227.6460492610931
1517,1228.3990511894226
1518,1229.1750531196594
1519,1230.001055240631
1520,1230.8680572509766
1521,1231.7340593338013
1522,1232.5570614337921
1523,1233.330063343048
1524,1234.0870652198792
1525,1234.8490672111511
1526,1235.6300690174103
1527,1236.416071176529
1528,1237.1910729408264
1529,1237.988075017929
1530,1238.7660768032074
1531,1239.5470788478851
1532,1240.3430807590485
1533,1241.1050827503204
1534,1241.837084531784
1535,1242.5600862503052
1536,1243.2720880508423
1537,1243.9690897464752
1538,1244.6620914936066
1539,1245.3770933151245
1540,1246.11709523201
1541,1246.9060971736908
1542,1247.6920990943909
1543,1248.449100971222
1544,1249.2271029949188
1545,1250.0331048965454
1546,1250.841106891632
1547,1251.6331088542938
1548,1252.3911106586456
1549,1253.149112701416
1550,1253.9421145915985
1551,1254.7881166934967
1552,1255.6611189842224
1553,1256.5471210479736
1554,1257.4161231517792
1555,1258.2651252746582
1556,1259.104127407074
1557,1259.9281294345856
1558,1260.715131521225
1559,1261.5141334533691
1560,1262.3281354904175
1561,1263.1981375217438
1562,1264.0631396770477
1563,1264.8841416835785
1564,1265.6961438655853
1565,1266.5091457366943
1566,1267.3231477737427
1567,1268.1331498622894
1568,1268.9331517219543
1569,1269.7781538963318
1570,1270.6491560935974
1571,1271.473158121109
1572,1272.251160144806
1573,1272.9991619586945
1574,1273.729163646698
1575,1274.4391655921936
1576,1275.1371672153473
1577,1275.8331689834595
1578,1276.5161707401276
1579,1277.1961724758148
1580,1277.9201741218567
1581,1278.6991760730743
1582,1279.4681780338287
1583,1280.251179933548
1584,1281.0151817798615
1585,1281.7591836452484
1586,1282.4881854057312
1587,1283.2011873722076
1588,1283.921189069748
1589,1284.660190820694
1590,1285.4541928768158
1591,1286.2451949119568
1592,1287.0251967906952
1593,1287.819198846817
1594,1288.6102006435394
1595,1289.4002027511597
1596,1290.1702046394348
1597,1290.9322063922882
1598,1291.7072083950043
1599,1292.4622101783752
1600,1293.230212211609
1601,1293.9992141723633
1602,1294.7872159481049
1603,1295.55921792984
1604,1296.3382198810577
1605,1297.1492218971252
1606,1297.9422237873077
1607,1298.7232258319855
1608,1299.5152277946472
1609,1300.3132297992706
1610,1301.1182317733765
1611,1301.924233675003
1612,1302.7212357521057
1613,1303.5082376003265
1614,1304.2882397174835
1615,1305.09424161911
1616,1305.975243806839
1617,1306.8882460594177
1618,1307.7642483711243
1619,1308.5922503471375
1620,1309.4422523975372
1621,1310.310254573822
1622,1311.1512567996979
1623,1311.9882588386536
1624,1312.8452608585358
1625,1313.7062630653381
1626,1314.5502650737762
1627,1315.4092671871185
1628,1316.2802693843842
1629,1317.1592717170715
1630,1318.0082738399506
1631,1318.8502757549286
1632,1319.6892778873444
1633,1320.5062799453735
1634,1321.3302819728851
1635,1322.1542840003967
1636,1323.0172860622406
1637,1323.849288225174
1638,1324.6952903270721
1639,1325.5272924900055
1640,1326.3572945594788
1641,1327.1932964324951
1642,1328.047298669815
1643,1328.9243009090424
1644,1329.7453029155731
1645,1330.5563049316406
1646,1331.3723068237305
1647,1332.174309015274
1648,1332.9793109893799
1649,1333.7543127536774
1650,1334.4823145866394
1651,1335.2383165359497
1652,1336.0623185634613
1653,1336.9663207530975
1654,1337.882323026657
1655,1338.8293254375458
1656,1339.753327846527
1657,1340.61132979393
1658,1341.4403319358826
1659,1342.2833340168
1660,1343.1973361968994
1661,1344.1033384799957
1662,1344.9923408031464
1663,1345.8893430233002
1664,1346.905345439911
1665,1347.8473477363586
1666,1348.787350177765
1667,1349.696352481842
1668,1350.5843546390533
1669,1351.5243570804596
1670,1352.5943596363068
1671,1353.5483620166779
1672,1354.4483642578125
1673,1355.4203667640686
1674,1356.4593691825867
1675,1357.394371509552
1676,1358.335373878479
1677,1359.3123762607574
1678,1360.246378660202
1679,1361.145380973816
1680,1362.0843832492828
1681,1363.0263855457306
1682,1363.929387807846
1683,1364.8873901367188
1684,1365.8593926429749
1685,1366.8063950538635
1686,1367.7253971099854
1687,1368.6893997192383
1688,1369.6564021110535
1689,1370.570404291153
1690,1371.4474065303802
1691,1372.3214087486267
1692,1373.2154109477997
1693,1374.0814130306244
1694,1374.9714152812958
1695,1375.9504177570343
1696,1376.8944199085236
1697,1377.7644221782684
1698,1378.599424123764
1699,1379.4784264564514
1700,1380.3444285392761
1701,1381.1954307556152
1702,1382.0894329547882
1703,1383.0254352092743
1704,1383.878437280655
1705,1384.7864396572113
1706,1385.7094419002533
1707,1386.6374442577362
1708,1387.5354464054108
1709,1388.3984484672546
1710,1389.2634506225586
1711,1390.1304528713226
1712,1390.9694550037384
1713,1391.8344571590424
1714,1392.7414593696594
1715,1393.6964616775513
1716,1394.5844638347626
1717,1395.4524660110474
1718,1396.3274681568146
1719,1397.1924703121185
1720,1398.0234725475311
1721,1398.881474494934
1722,1399.7674767971039
1723,1400.6564791202545
1724,1401.5034811496735
1725,1402.356483221054
1726,1403.2284853458405
1727,1404.0714874267578
1728,1404.9124896526337
1729,1405.7644917964935
1730,1406.6484940052032
1731,1407.5004959106445
1732,1408.3194980621338
1733,1409.1715002059937
1734,1410.088502407074
1735,1411.0015046596527
1736,1411.9155070781708
1737,1412.8785092830658
1738,1413.8335118293762
1739,1414.7165138721466
1740,1415.5675160884857
1741,1416.3935182094574
1742,1417.2135200500488
1743,1418.082522392273
1744,1418.9625244140625
1745,1419.8325266838074
1746,1420.7135288715363
1747,1421.5905311107635
1748,1422.4505331516266
1749,1423.2635352611542
1750,1424.0675370693207
1751,1424.8905391693115
1752,1425.6965413093567
1753,1426.5045433044434
1754,1427.3185453414917
1755,1428.1455473899841
1756,1428.9565494060516
1757,1429.7515513896942
1758,1430.5535533428192
1759,1431.3475551605225
1760,1432.1285572052002
1761,1432.9095590114594
1762,1433.7125611305237
1763,1434.537563085556
1764,1435.3475651741028
1765,1436.1455671787262
1766,1436.948569059372
1767,1437.7565710544586
1768,1438.5445730686188
1769,1439.3385751247406
1770,1440.12357711792
1771,1440.933578968048
1772,1441.7315809726715
1773,1442.531583070755
1774,1443.328584909439
1775,1444.1435871124268
1776,1444.9545891284943
1777,1445.7745909690857
1778,1446.61159324646
1779,1447.4335951805115
1780,1448.2345972061157
1781,1449.0285992622375
1782,1449.839601278305
1783,1450.6336030960083
1784,1451.4176051616669
1785,1452.2066071033478
1786,1453.0306091308594
1787,1453.8346111774445
1788,1454.6146130561829
1789,1455.400614976883
1790,1456.186616897583
1791,1456.9526188373566
1792,1457.6946206092834
1793,1458.4276225566864
1794,1459.1856243610382
1795,1459.9676263332367
1796,1460.7606282234192
1797,1461.588630437851
1798,1462.4086322784424
1799,1463.2076344490051
1800,1463.983636379242
1801,1464.751638174057
1802,1465.508640050888
1803,1466.2716419696808
1804,1467.027643918991
1805,1467.7846457958221
1806,1468.526647567749
1807,1469.2806494235992
1808,1470.0366513729095
1809,1470.805653333664
1810,1471.620655298233
1811,1472.4596574306488
1812,1473.2576594352722
1813,1474.0326611995697
1814,1474.8036632537842
1815,1475.6056652069092
1816,1476.4196672439575
1817,1477.2316691875458
1818,1478.0396711826324
1819,1478.8626732826233
1820,1479.7036752700806
1821,1480.546677350998
1822,1481.366679430008
1823,1482.1616814136505
1824,1482.9286832809448
1825,1483.7096853256226
1826,1484.5326874256134
1827,1485.3776893615723
1828,1486.2306916713715
1829,1487.054693698883
1830,1487.8906955718994
1831,1488.7496979236603
1832,1489.59969997406
1833,1490.4257020950317
1834,1491.2867040634155
1835,1492.205706357956
1836,1493.1517088413239
1837,1494.042711019516
1838,1494.9267132282257
1839,1495.8087153434753
1840,1496.647717475891
1841,1497.4647195339203
1842,1498.2697215080261
1843,1499.0447235107422
1844,1499.771725177765
1845,1500.512727022171
1846,1501.2917289733887
1847,1502.105731010437
1848,1502.9117329120636
1849,1503.7527351379395
1850,1504.5937371253967
1851,1505.4117391109467
1852,1506.1977412700653
1853,1506.9947431087494
1854,1507.8117451667786
1855,1508.6467473506927
1856,1509.4707493782043
1857,1510.27175116539
1858,1511.075753211975
1859,1512.1257557868958
1860,1513.099758386612
1861,1514.004760503769
1862,1514.8607625961304
1863,1515.704764842987
1864,1516.5427668094635
1865,1517.4047689437866
1866,1518.328771352768
1867,1519.3047738075256
1868,1520.2757761478424
1869,1521.2457785606384
1870,1522.1467807292938
1871,1523.0177829265594
1872,1523.8747849464417
1873,1524.7577872276306
1874,1525.6827895641327
1875,1526.6267919540405
1876,1527.5317940711975
1877,1528.3907961845398
1878,1529.285798549652
1879,1530.1708006858826
1880,1531.0638029575348
1881,1531.980805158615
1882,1532.8868074417114
1883,1533.744809627533
1884,1534.6038117408752
1885,1535.47181391716
1886,1536.378816127777
1887,1537.3408184051514
1888,1538.234820842743
1889,1539.1668231487274
1890,1540.1428253650665
1891,1541.1348278522491
1892,1542.0398302078247
1893,1542.9228324890137
1894,1543.8168346881866
1895,1544.778836965561
1896,1545.7428393363953
1897,1546.6668417453766
1898,1547.6118440628052
1899,1548.5728464126587
1900,1549.5388488769531
1901,1550.4848511219025
1902,1551.3958535194397
1903,1552.296855688095
1904,1553.195858001709
1905,1554.1418602466583
1906,1555.1008627414703
1907,1556.0188648700714
1908,1556.9548671245575
1909,1557.9038696289062
1910,1558.840871810913
1911,1559.7248740196228
1912,1560.6318764686584
1913,1561.5718786716461
1914,1562.5348811149597
1915,1563.4298832416534
1916,1564.3128855228424
1917,1565.230887889862
1918,1566.1398899555206
1919,1567.016892194748
1920,1567.9038944244385
1921,1568.8228967189789
1922,1569.686898946762
1923,1570.5389008522034
1924,1571.400903224945
1925,1572.263905286789
1926,1573.136907339096
1927,1573.9809095859528
1928,1574.8359117507935
1929,1575.7109138965607
1930,1576.6189160346985
1931,1577.489918231964
1932,1578.3489203453064
1933,1579.2299225330353
1934,1580.1359248161316
1935,1580.9799268245697
1936,1581.8289289474487
1937,1582.6839311122894
1938,1583.557933330536
1939,1584.4519355297089
1940,1585.324937582016
1941,1586.1889398097992
1942,1587.0709419250488
1943,1587.9779443740845
1944,1588.7949464321136
1945,1589.5659482479095
1946,1590.3129501342773
1947,1591.060951948166
1948,1591.8219537734985
1949,1592.5499556064606
1950,1593.2709574699402
1951,1594.004959344864
1952,1594.756961107254
1953,1595.505963087082
1954,1596.2609648704529
1955,1597.0249667167664
1956,1597.779968738556
1957,1598.5339705944061
1958,1599.277972459793
1959,1600.0169742107391
1960,1600.7469758987427
1961,1601.4839777946472
1962,1602.2279796600342
1963,1603.0029816627502
1964,1603.81898355484
1965,1604.6189856529236
1966,1605.4089875221252
1967,1606.1759893894196
1968,1606.9239914417267
1969,1607.674993276596
1970,1608.4409952163696
1971,1609.2599971294403
1972,1610.0899991989136
1973,1610.919001340866
1974,1611.7310032844543
1975,1612.5160052776337
1976,1613.299007177353
1977,1614.058009147644
1978,1614.8170108795166
1979,1615.5720129013062
1980,1616.3460147380829
1981,1617.1380167007446
1982,1617.983018875122
1983,1618.8470208644867
1984,1619.6700229644775
1985,1620.4640250205994
1986,1621.2640268802643
1987,1622.0710289478302
1988,1622.8750309944153
1989,1623.6740329265594
1990,1624.4840350151062
1991,1625.305037021637
1992,1626.120038986206
1993,1626.911041021347
1994,1627.702043056488
1995,1628.5410449504852
1996,1629.3950471878052
1997,1630.2040491104126
1998,1630.9950511455536
1999,1631.788053035736
2000,1632.5830550193787
2001,1633.3870570659637
2002,1634.204059123993
2003,1635.0090610980988
2004,1635.8140630722046
2005,1636.6380650997162
2006,1637.443067073822
2007,1638.216068983078
2008,1638.9650709629059
2009,1639.7090728282928
2010,1640.4730746746063
2011,1641.2620766162872
2012,1642.0510785579681
2013,1642.84508061409
2014,1643.6170825958252
2015,1644.3940844535828
2016,1645.1920864582062
2017,1645.9850883483887
2018,1646.770090341568
2019,1647.5630922317505
2020,1648.3670942783356
2021,1649.181096315384
2022,1650.009098291397
2023,1650.843100309372
2024,1651.6731023788452
2025,1652.525104522705
2026,1653.379106760025
2027,1654.2301087379456
2028,1655.0501108169556
2029,1655.8541128635406
2030,1656.6381149291992
2031,1657.4151167869568
2032,1658.2131187915802
2033,1659.0351207256317
2034,1659.870122909546
2035,1660.7291250228882
2036,1661.5851271152496
2037,1662.4771292209625
2038,1663.3911316394806
2039,1664.2491338253021
2040,1665.1151359081268
2041,1665.9681379795074
2042,1666.768140077591
2043,1667.5641419887543
2044,1668.3791439533234
2045,1669.2261459827423
2046,1670.0561480522156
2047,1670.86115026474
2048,1671.6521520614624
2049,1672.460154056549
2050,1673.2601561546326
2051,1674.0731580257416
2052,1674.8771600723267
2053,1675.6951620578766
2054,1676.4851641654968
2055,1677.2511661052704
2056,1677.994167804718
2057,1678.7171697616577
2058,1679.4451713562012
2059,1680.1661732196808
2060,1680.972175359726
2061,1681.8681774139404
2062,1682.81817984581
2063,1683.725182056427
2064,1684.5681841373444
2065,1685.3681862354279
2066,1686.1411881446838
2067,1686.8971900939941
2068,1687.6821918487549
2069,1688.4831938743591
2070,1689.2871959209442
2071,1690.0401978492737
2072,1690.762199640274
2073,1691.4642012119293
2074,1692.174203157425
2075,1692.9322049617767
2076,1693.675206899643
2077,1694.3902084827423
2078,1695.097210407257
2079,1695.7862119674683
2080,1696.4612138271332
2081,1697.1182153224945
2082,1697.7652170658112
2083,1698.4082186222076
2084,1699.056220293045
2085,1699.7292218208313
2086,1700.461223602295
2087,1701.2622256278992
2088,1702.0882277488708
2089,1702.9192297458649
2090,1703.7172317504883
2091,1704.5232336521149
2092,1705.3202357292175
2093,1706.1142377853394
2094,1706.904239654541
2095,1707.735241651535
2096,1708.5682437419891
2097,1709.3972458839417
2098,1710.235247850418
2099,1711.0562500953674
2100,1711.8272519111633
2101,1712.561253786087
2102,1713.3022556304932
2103,1714.0672574043274
2104,1714.8662593364716
2105,1715.68026137352
2106,1716.4772634506226
2107,1717.270265340805
2108,1718.0802674293518
2109,1718.8892693519592
2110,1719.683271408081
2111,1720.4772734642029
2112,1721.2892754077911
2113,1722.0912773609161
2114,1722.914279460907
2115,1723.698281288147
2116,1724.4472832679749
2117,1725.1712851524353
2118,1725.9072868824005
2119,1726.6772887706757
2120,1727.4522907733917
2121,1728.2612926959991
2122,1729.0702946186066
2123,1729.884296655655
2124,1730.664298772812
2125,1731.450300693512
2126,1732.2193026542664
2127,1733.0333046913147
2128,1733.8313064575195
2129,1734.6213085651398
2130,1735.4143104553223
2131,1736.2433125972748
2132,1737.0883145332336
2133,1737.896316766739
2134,1738.691318511963
2135,1739.4713206291199
2136,1740.236322402954
2137,1740.9733242988586
2138,1741.7033262252808
2139,1742.441328048706
2140,1743.2313299179077
2141,1744.0253319740295
2142,1744.8313338756561
2143,1745.6313359737396
2144,1746.4263379573822
2145,1747.1903398036957
2146,1747.941341638565
2147,1748.6783435344696
2148,1749.4353454113007
2149,1750.1883471012115
2150,1750.9323489665985
2151,1751.6753509044647
2152,1752.4473528862
2153,1753.2053546905518
2154,1753.9713566303253
2155,1754.7623584270477
2156,1755.5873606204987
2157,1756.4103627204895
2158,1757.1933646202087
2159,1757.994366645813
2160,1758.807368516922
2161,1759.5993704795837
2162,1760.3673725128174
2163,1761.1253743171692
2164,1761.8963763713837
2165,1762.6823782920837
2166,1763.452380180359
2167,1764.2323820590973
2168,1765.056384086609
2169,1765.8743860721588
2170,1766.7133882045746
2171,1767.5313901901245
2172,1768.3613922595978
2173,1769.1503942012787
2174,1769.9383962154388
2175,1770.7303981781006
2176,1771.5314002037048
2177,1772.3224022388458
2178,1773.1404042243958
2179,1774.0074062347412
2180,1774.8494083881378
2181,1775.6594104766846
2182,1776.473412513733
2183,1777.2664144039154
2184,1778.032416343689
2185,1778.744418144226
2186,1779.472419977188
2187,1780.243421792984
2188,1781.0254237651825
2189,1781.8114256858826
2190,1782.6374278068542
2191,1783.5104298591614
2192,1784.3314321041107
2193,1785.1124339103699
2194,1785.8974359035492
2195,1786.6824378967285
2196,1787.4564397335052
2197,1788.2574417591095
2198,1789.1044437885284
2199,1789.9414458274841
2200,1790.74644780159
2201,1791.537449836731
2202,1792.3384518623352
2203,1793.1664538383484
2204,1793.979455947876
2205,1794.815458059311
2206,1795.6924602985382
2207,1796.4964621067047
2208,1797.3014643192291
2209,1798.0794661045074
2210,1798.8734681606293
2211,1799.6854701042175
2212,1800.4664721488953
2213,1801.2804741859436
2214,1802.163476228714
2215,1803.0024783611298
2216,1803.8804805278778
2217,1804.7544827461243
2218,1805.5994849205017
2219,1806.4134867191315
2220,1807.215488910675
2221,1808.0364909172058
2222,1808.8894929885864
2223,1809.7244951725006
2224,1810.5864973068237
2225,1811.4634993076324
2226,1812.3145015239716
2227,1813.1675035953522
2228,1814.0315058231354
2229,1814.8965079784393
2230,1815.7665100097656
2231,1816.5855121612549
2232,1817.4685142040253
2233,1818.3805165290833
2234,1819.2255187034607
2235,1820.071520805359
2236,1820.9535229206085
2237,1821.8475251197815
2238,1822.7855274677277
2239,1823.7485299110413
2240,1824.7615323066711
2241,1825.6685347557068
2242,1826.525536775589
2243,1827.3385388851166
2244,1828.1265406608582
2245,1828.909542798996
2246,1829.722544670105
2247,1830.576546907425
2248,1831.3975489139557
2249,1832.2485508918762
2250,1833.1105530261993
2251,1833.9465551376343
2252,1834.7555572986603
2253,1835.547559261322
2254,1836.3525612354279
2255,1837.146563053131
2256,1837.9305651187897
2257,1838.7675671577454
2258,1839.6195693016052
2259,1840.4525713920593
2260,1841.291573524475
2261,1842.1345756053925
2262,1842.9555776119232
2263,1843.7795796394348
2264,1844.627581834793
2265,1845.4945838451385
2266,1846.3225860595703
2267,1847.1565880775452
2268,1848.0115902423859
2269,1848.882592201233
2270,1849.7245943546295
2271,1850.5655965805054
2272,1851.4195985794067
2273,1852.2856006622314
2274,1853.1296029090881
2275,1853.979604959488
2276,1854.8426070213318
2277,1855.7366094589233
2278,1856.6086115837097
2279,1857.4896137714386
2280,1858.3836159706116
2281,1859.2466180324554
2282,1860.0926201343536
2283,1860.9736223220825
2284,1861.8806245326996
2285,1862.7396266460419
2286,1863.6226289272308
2287,1864.5456311702728
2288,1865.4316334724426
2289,1866.3046355247498
2290,1867.1736378669739
2291,1868.0056397914886
2292,1868.821641921997
2293,1869.621643781662
2294,1870.4026458263397
2295,1871.1436476707458
2296,1871.8726494312286
2297,1872.6356513500214
2298,1873.4356532096863
2299,1874.2356553077698
2300,1875.0736572742462
2301,1875.9066593647003
2302,1876.7186615467072
2303,1877.510663509369
2304,1878.2886652946472
2305,1879.0446672439575
2306,1879.784669160843
2307,1880.5376708507538
2308,1881.3236730098724
2309,1882.1256749629974
2310,1882.960676908493
2311,1883.798679113388
2312,1884.6806812286377
2313,1885.5026831626892
2314,1886.283685207367
2315,1887.0646872520447
2316,1887.8566892147064
2317,1888.6406910419464
2318,1889.451693058014
2319,1890.268695116043
2320,1891.1216971874237
2321,1892.0016994476318
2322,1892.8327014446259
2323,1893.6567034721375
2324,1894.4627056121826
2325,1895.2657074928284
2326,1896.0967094898224
2327,1896.9767117500305
2328,1897.7977137565613
2329,1898.6357159614563
2330,1899.4667179584503
2331,1900.279720067978
2332,1901.1067221164703
2333,1901.9717242717743
2334,1902.8857264518738
2335,1903.7567286491394
2336,1904.60773062706
2337,1905.4647328853607
2338,1906.2807347774506
2339,1907.0617368221283
2340,1907.835738658905
2341,1908.6487407684326
2342,1909.4847428798676
2343,1910.3317449092865
2344,1911.1957471370697
2345,1912.025749206543
2346,1912.8377511501312
2347,1913.6577532291412
2348,1914.478755235672
2349,1915.2867572307587
2350,1916.1177592277527
2351,1916.9447612762451
2352,1917.7627635002136
2353,1918.5687654018402
2354,1919.3727674484253
2355,1920.1777694225311
2356,1920.9747714996338
2357,1921.768773317337
2358,1922.575775384903
2359,1923.3987774848938
2360,1924.1957793235779
2361,1924.9847812652588
2362,1925.7827832698822
2363,1926.5777852535248
2364,1927.3687872886658
2365,1928.1847891807556
2366,1929.011791229248
2367,1929.820793390274
2368,1930.6327953338623
2369,1931.4467973709106
2370,1932.2517993450165
2371,1933.0298013687134
2372,1933.788803100586
2373,1934.529804944992
2374,1935.2828068733215
2375,1936.0328087806702
2376,1936.810810804367
2377,1937.6298127174377
2378,1938.4398148059845
2379,1939.2478168010712
2380,1940.0678188800812
2381,1940.9028208255768
2382,1941.6828227043152
2383,1942.4408247470856
2384,1943.1818265914917
2385,1943.8968284130096
2386,1944.5818300247192
2387,1945.2788317203522
2388,1945.996833562851
2389,1946.7438354492188
2390,1947.5058372020721
2391,1948.281839132309
2392,1949.045841217041
2393,1949.7818429470062
2394,1950.510844707489
2395,1951.2488465309143
2396,1951.977848291397
2397,1952.7158501148224
2398,1953.4738521575928
2399,1954.2528541088104
2400,1955.029855966568
2401,1955.7928578853607
2402,1956.5518598556519
2403,1957.3268616199493
2404,1958.0968635082245
2405,1958.8478653430939
2406,1959.595867395401
2407,1960.3648691177368
2408,1961.1378710269928
2409,1961.9238731861115
2410,1962.7038750648499
2411,1963.4968769550323
2412,1964.2898790836334
2413,1965.064880847931
2414,1965.8518829345703
2415,1966.646884918213
2416,1967.4298868179321
2417,1968.2248888015747
2418,1969.0308907032013
2419,1969.8598928451538
2420,1970.6968948841095
2421,1971.5088968276978
2422,1972.3158988952637
2423,1973.127900838852
2424,1973.9239029884338
2425,1974.7329049110413
2426,1975.5449068546295
2427,1976.3989090919495
2428,1977.2279109954834
2429,1978.0769131183624
2430,1978.9359152317047
2431,1979.7829174995422
2432,1980.619919538498
2433,1981.4569215774536
2434,1982.3069236278534
2435,1983.1459257602692
2436,1983.9599277973175
2437,1984.7609298229218
2438,1985.5649318695068
2439,1986.3809337615967
2440,1987.165935754776
2441,1987.943937778473
2442,1988.7209396362305
2443,1989.5179417133331
2444,1990.3099436759949
2445,1991.0849454402924
2446,1991.8629474639893
2447,1992.6589493751526
2448,1993.443951368332
2449,1994.2229533195496
2450,1994.9909551143646
2451,1995.7689571380615
2452,1996.5679590702057
2453,1997.365961074829
2454,1998.172963142395
2455,1998.9979650974274
2456,1999.8119671344757
2457,2000.6289691925049
2458,2001.4229712486267
2459,2002.200973033905
2460,2002.9709751605988
2461,2003.7439770698547
2462,2004.5339789390564
2463,2005.3669810295105
2464,2006.2319831848145
2465,2007.0809853076935
2466,2007.9259872436523
2467,2008.7819895744324
2468,2009.618991613388
2469,2010.4469935894012
2470,2011.2849957942963
2471,2012.1249978542328
2472,2012.9569997787476
2473,2013.7810018062592
2474,2014.6020040512085
2475,2015.379005908966
2476,2016.1320078372955
2477,2016.9260096549988
2478,2017.7330117225647
2479,2018.5540137290955
2480,2019.3880157470703
2481,2020.2490179538727
2482,2021.0690200328827
2483,2021.883022069931
2484,2022.701024055481
2485,2023.5260260105133
2486,2024.3320281505585
2487,2025.1200301647186
2488,2025.927031993866
2489,2026.7610342502594
2490,2027.5970361232758
2491,2028.427038192749
2492,2029.2670402526855
2493,2030.114042520523
2494,2030.943044424057
2495,2031.7560465335846
2496,2032.5820486545563
2497,2033.4250507354736
2498,2034.2820527553558
2499,2035.11705493927
2500,2035.9750571250916
2501,2036.8740592002869
2502,2037.7690615653992
2503,2038.6310636997223
2504,2039.499065876007
2505,2040.344067811966
2506,2041.1870698928833
2507,2042.015072107315
2508,2042.8500740528107
2509,2043.6970760822296
2510,2044.5380783081055
2511,2045.376080274582
2512,2046.2010824680328
2513,2047.0320844650269
2514,2047.8730866909027
2515,2048.700088739395
2516,2049.5220906734467
2517,2050.3400926589966
2518,2051.167094707489
2519,2051.9930968284607
2520,2052.823098897934
2521,2053.6581008434296
2522,2054.521103143692
2523,2055.3721051216125
2524,2056.204107284546
2525,2057.050109386444
2526,2057.88911151886
2527,2058.7131135463715
2528,2059.564115524292
2529,2060.413117647171
2530,2061.275119781494
2531,2062.1221220493317
2532,2063.0141241550446
2533,2063.9111263751984
2534,2064.7291283607483
2535,2065.5011303424835
2536,2066.254132270813
2537,2067.011134147644
2538,2067.7611360549927
2539,2068.5011377334595
2540,2069.2441396713257
2541,2070.0101416110992
2542,2070.789143562317
2543,2071.5631453990936
2544,2072.3341472148895
2545,2073.103149175644
2546,2073.8761510849
2547,2074.6411530971527
2548,2075.413155078888
2549,2076.2271571159363
2550,2077.0501589775085
2551,2077.864161014557
2552,2078.679162979126
2553,2079.5091650485992
2554,2080.322167158127
2555,2081.11816906929
2556,2081.944171190262
2557,2082.785173177719
2558,2083.6511754989624
2559,2084.4951775074005
2560,2085.343179702759
2561,2086.1931817531586
2562,2087.065183877945
2563,2087.9101860523224
2564,2088.7551882267
2565,2089.6191902160645
2566,2090.511192560196
2567,2091.3541946411133
2568,2092.186196565628
2569,2093.0601987838745
2570,2093.9822010993958
2571,2094.870203256607
2572,2095.7462055683136
2573,2096.6522076129913
2574,2097.562210083008
2575,2098.437212228775
2576,2099.30521440506
2577,2100.18821644783
2578,2101.1042187213898
2579,2101.994220972061
2580,2102.8822231292725
2581,2103.7772254943848
2582,2104.668227672577
2583,2105.5352296829224
2584,2106.422231912613
2585,2107.3262343406677
2586,2108.251236438751
2587,2109.150238752365
2588,2110.0112409591675
2589,2110.8232429027557
2590,2111.6152448654175
2591,2112.400246858597
2592,2113.2112488746643
2593,2114.0582509040833
2594,2114.928253173828
2595,2115.780255317688
2596,2116.654257297516
2597,2117.5242595672607
2598,2118.385261774063
2599,2119.224263906479
2600,2120.0402657985687
2601,2120.8582677841187
2602,2121.6942698955536
2603,2122.5382721424103
2604,2123.417274236679
2605,2124.3182764053345
2606,2125.205278635025
2607,2126.04328083992
2608,2126.8912827968597
2609,2127.7432849407196
2610,2128.6112871170044
2611,2129.467289209366
2612,2130.3202912807465
2613,2131.1582934856415
2614,2131.9882955551147
2615,2132.8432977199554
2616,2133.7022998332977
2617,2134.55730175972
2618,2135.378304004669
2619,2136.226305961609
2620,2137.0893082618713
2621,2137.956310272217
2622,2138.775312423706
2623,2139.5853142738342
2624,2140.4033164978027
2625,2141.265318632126
2626,2142.1573207378387
2627,2143.050323009491
2628,2143.942325115204
2629,2144.796327352524
2630,2145.6123292446136
2631,2146.4223313331604
2632,2147.230333328247
2633,2148.074335336685
2634,2148.9193375110626
2635,2149.79433965683
2636,2150.695342063904
2637,2151.59934425354
2638,2152.4553463459015
2639,2153.252348423004
2640,2154.0233502388
2641,2154.8093521595
2642,2155.613354206085
2643,2156.407356262207
2644,2157.1723580360413
2645,2157.9423599243164
2646,2158.8643622398376
2647,2159.749364376068
2648,2160.6023666858673
2649,2161.447368621826
2650,2162.2583706378937
2651,2163.040372610092
2652,2163.832374572754
2653,2164.6353766918182
2654,2165.4633786678314
2655,2166.317380666733
2656,2167.2083830833435
2657,2168.096385240555
2658,2168.9773874282837
2659,2169.8553895950317
2660,2170.700391769409
2661,2171.4973936080933
2662,2172.2723956108093
2663,2173.044397354126
2664,2173.8293993473053
2665,2174.6174013614655
2666,2175.394403219223
2667,2176.17040514946
2668,2176.944407224655
2669,2177.7254090309143
2670,2178.5004110336304
2671,2179.250412940979
2672,2179.9844148159027
2673,2180.707416534424
2674,2181.427418231964
2675,2182.1494200229645
2676,2182.8874218463898
2677,2183.6704239845276
2678,2184.5444259643555
2679,2185.44442820549
2680,2186.2914304733276
2681,2187.1124324798584
2682,2187.931434392929
2683,2188.7454364299774
2684,2189.553438425064
2685,2190.365440607071
2686,2191.2184426784515
2687,2192.105444908142
2688,2192.968446969986
2689,2193.830449104309
2690,2194.703451156616
2691,2195.56845331192
2692,2196.394455432892
2693,2197.214457511902
2694,2198.0354595184326
2695,2198.864461660385
2696,2199.7044637203217
2697,2200.5114657878876
2698,2201.3434677124023
2699,2202.19046998024
2700,2203.0544719696045
2701,2203.8774740695953
2702,2204.6764760017395
2703,2205.4754779338837
2704,2206.2884800434113
2705,2207.1204822063446
2706,2207.9494841098785
2707,2208.7954862117767
2708,2209.6474883556366
2709,2210.5044906139374
2710,2211.3594925403595
2711,2212.1954946517944
2712,2213.0574967861176
2713,2213.9114990234375
2714,2214.765501022339
2715,2215.5945031642914
2716,2216.4105052948
2717,2217.253507375717
2718,2218.0945093631744
2719,2218.923511505127
2720,2219.736513376236
2721,2220.5185153484344
2722,2221.2805173397064
2723,2222.0165190696716
2724,2222.751520872116
2725,2223.4875228405
2726,2224.2675247192383
2727,2225.0825266838074
2728,2225.8715286254883
2729,2226.6485307216644
2730,2227.4275324344635
2731,2228.2035343647003
2732,2228.974536418915
2733,2229.760538339615
2734,2230.5715403556824
2735,2231.400542497635
2736,2232.199544429779
2737,2232.9955463409424
2738,2233.7865483760834
2739,2234.5675501823425
2740,2235.3105521202087
2741,2236.0475540161133
2742,2236.7965557575226
2743,2237.562557697296
2744,2238.356559753418
2745,2239.156561613083
2746,2239.939563512802
2747,2240.7135655879974
2748,2241.448567390442
2749,2242.1805691719055
2750,2242.9235711097717
2751,2243.6705729961395
2752,2244.408574819565
2753,2245.1955766677856
2754,2245.9735786914825
2755,2246.7275805473328
2756,2247.4705822467804
2757,2248.2025842666626
2758,2248.9255859851837
2759,2249.6435878276825
2760,2250.358589410782
2761,2251.0795912742615
2762,2251.832593202591
2763,2252.5945949554443
2764,2253.3325967788696
2765,2254.0675988197327
2766,2254.831600666046
2767,2255.599602460861
2768,2256.35160446167
2769,2257.085606098175
2770,2257.815608024597
2771,2258.543609857559
2772,2259.270611524582
2773,2259.9806134700775
2774,2260.682615041733
2775,2261.3896169662476
2776,2262.137618780136
2777,2262.894620656967
2778,2263.665622472763
2779,2264.451624393463
2780,2265.2526264190674
2781,2266.08362865448
2782,2266.9026305675507
2783,2267.6946325302124
2784,2268.487634420395
2785,2269.2586364746094
2786,2270.082638502121
2787,2270.928640604019
2788,2271.7606427669525
2789,2272.5996446609497
2790,2273.4556469917297
2791,2274.309648990631
2792,2275.1976511478424
2793,2276.087653398514
2794,2276.949655532837
2795,2277.769657611847
2796,2278.584659576416
2797,2279.401661634445
2798,2280.2106635570526
2799,2280.9996654987335
2800,2281.794667482376
2801,2282.5956695079803
2802,2283.394671678543
2803,2284.2186737060547
2804,2285.0396757125854
2805,2285.8686776161194
2806,2286.680679798126
2807,2287.4736816883087
2808,2288.242683649063
2809,2288.9856853485107
2810,2289.728687286377
2811,2290.482689142227
2812,2291.263691186905
2813,2292.0566930770874
2814,2292.8276948928833
2815,2293.597697019577
2816,2294.379698753357
2817,2295.143700838089
2818,2295.909702539444
2819,2296.6627044677734
2820,2297.404706478119
2821,2298.1947083473206
2822,2299.0107102394104
2823,2299.809712409973
2824,2300.58571434021
2825,2301.3347160816193
2826,2302.0807180404663
2827,2302.8587198257446
2828,2303.7027220726013
2829,2304.5487241744995
2830,2305.373726129532
2831,2306.1967282295227
2832,2307.0317301750183
2833,2307.8987324237823
2834,2308.7747344970703
2835,2309.6237366199493
2836,2310.441738843918
2837,2311.2337408065796
2838,2311.9907426834106
2839,2312.74174451828
2840,2313.5347464084625
2841,2314.3727486133575
2842,2315.189750432968
2843,2316.0107526779175
2844,2316.8967547416687
2845,2317.773756980896
2846,2318.635759115219
2847,2319.4707610607147
2848,2320.302763223648
2849,2321.170765399933
2850,2322.002767562866
2851,2322.8307695388794
2852,2323.6797716617584
2853,2324.5237736701965
2854,2325.339775800705
2855,2326.14377784729
2856,2326.948779821396
2857,2327.8047819137573
2858,2328.6197838783264
2859,2329.411785840988
2860,2330.1887876987457
2861,2330.9647896289825
2862,2331.719791650772
2863,2332.476793527603
2864,2333.2517952919006
2865,2334.0377974510193
2866,2334.8337993621826
2867,2335.6538014411926
2868,2336.4388031959534
2869,2337.1988050937653
2870,2337.948807001114
2871,2338.6878089904785
2872,2339.409810781479
2873,2340.1498124599457
2874,2340.937814474106
2875,2341.77081656456
2876,2342.593818664551
2877,2343.419820547104
2878,2344.2348227500916
2879,2345.057824611664
2880,2345.874826669693
2881,2346.6558287143707
2882,2347.437830686569
2883,2348.2288324832916
2884,2349.01083445549
2885,2349.741836309433
2886,2350.471838235855
2887,2351.2378401756287
2888,2352.000841856003
2889,2352.7558438777924
2890,2353.490845680237
2891,2354.2488474845886
2892,2355.0538494586945
2893,2355.8918516635895
2894,2356.6888535022736
2895,2357.4638555049896
2896,2358.2338573932648
2897,2359.0118594169617
2898,2359.809861421585
2899,2360.625863313675
2900,2361.46186542511
2901,2362.292867422104
2902,2363.083869457245
2903,2363.8788714408875
2904,2364.6848735809326
2905,2365.52587556839
2906,2366.340877532959
2907,2367.139879465103
2908,2367.933881521225
2909,2368.7758836746216
2910,2369.636885881424
2911,2370.480887889862
2912,2371.329890012741
2913,2372.2038922309875
2914,2373.0828943252563
2915,2373.9018964767456
2916,2374.707898378372
2917,2375.5409004688263
2918,2376.3679025173187
2919,2377.148904323578
2920,2377.9349064826965
2921,2378.742908477783
2922,2379.5809104442596
2923,2380.3779125213623
2924,2381.1689143180847
2925,2381.9629163742065
2926,2382.7809183597565
2927,2383.58092045784
2928,2384.380922317505
2929,2385.1679244041443
2930,2385.978926420212
2931,2386.7969284057617
2932,2387.607930421829
2933,2388.417932510376
2934,2389.2589344978333
2935,2390.0889365673065
2936,2390.904938697815
2937,2391.7059404850006
2938,2392.510942697525
2939,2393.3169445991516
2940,2394.114946603775
2941,2394.921948671341
2942,2395.7309505939484
2943,2396.536952495575
2944,2397.3179545402527
2945,2398.105956554413
2946,2398.928958415985
2947,2399.779960632324
2948,2400.6099627017975
2949,2401.417964696884
2950,2402.227966785431
2951,2403.073968887329
2952,2403.899970769882
2953,2404.701972961426
2954,2405.508974790573
2955,2406.345976829529
2956,2407.164978981018
2957,2407.9659810066223
2958,2408.7679829597473
2959,2409.5689849853516
2960,2410.3559868335724
2961,2411.131988763809
2962,2411.899990797043
2963,2412.6709926128387
2964,2413.4439945220947
2965,2414.231996536255
2966,2415.0689985752106
2967,2415.9390008449554
2968,2416.7550027370453
2969,2417.5450048446655
2970,2418.3260066509247
2971,2419.1050086021423
2972,2419.8780105113983
2973,2420.6360125541687
2974,2421.396014213562
2975,2422.184016227722
2976,2423.0190184116364
2977,2423.8790204524994
2978,2424.7130224704742
2979,2425.521024465561
2980,2426.3180265426636
2981,2427.071028470993
2982,2427.802030324936
2983,2428.5420320034027
2984,2429.313034057617
2985,2430.132035970688
2986,2430.934037923813
2987,2431.7290399074554
2988,2432.543041944504
2989,2433.3670439720154
2990,2434.1560459136963
2991,2434.9310479164124
2992,2435.7180500030518
2993,2436.5110518932343
2994,2437.2930538654327
2995,2438.0380556583405
2996,2438.775057554245
2997,2439.54305934906
2998,2440.316061258316
2999,2441.078063249588
3000,2441.849065065384
3001,2442.6750671863556
3002,2443.507069349289
3003,2444.305071115494
3004,2445.1000730991364
3005,2445.8770751953125
3006,2446.655076980591
3007,2447.4150788784027
3008,2448.169080734253
3009,2448.929082632065
3010,2449.722084760666
3011,2450.548086643219
3012,2451.3820888996124
3013,2452.214090824127
3014,2453.034092903137
3015,2453.840094804764
3016,2454.643096923828
3017,2455.4960989952087
3018,2456.374101161957
3019,2457.2731034755707
3020,2458.113105535507
3021,2458.9431076049805
3022,2459.786109685898
3023,2460.6421117782593
3024,2461.4701137542725
3025,2462.302115917206
3026,2463.177118062973
3027,2464.089120388031
3028,2464.949122428894
3029,2465.814124584198
3030,2466.6701266765594
3031,2467.496128797531
3032,2468.303130865097
3033,2469.119132757187
3034,2469.9451348781586
3035,2470.7791368961334
3036,2471.5841388702393
3037,2472.4021410942078
3038,2473.2791430950165
3039,2474.153145313263
3040,2475.033147573471
3041,2475.8871495723724
3042,2476.7401518821716
3043,2477.5921540260315
3044,2478.441155910492
3045,2479.293158054352
3046,2480.157160282135
3047,2480.990162372589
3048,2481.826164484024
3049,2482.7161667346954
3050,2483.61416888237
3051,2484.4961709976196
3052,2485.355173110962
3053,2486.2001752853394
3054,2487.006177186966
3055,2487.797179222107
3056,2488.6101813316345
3057,2489.424183368683
3058,2490.221185207367
3059,2491.0241873264313
3060,2491.8501892089844
3061,2492.681191444397
3062,2493.491193294525
3063,2494.277195453644
3064,2495.0651972293854
3065,2495.841199159622
3066,2496.5992012023926
3067,2497.331202983856
3068,2498.0612046718597
3069,2498.796206474304
3070,2499.558208465576
3071,2500.339210510254
3072,2501.1292123794556
3073,2501.9002141952515
3074,2502.6832163333893
3075,2503.47221827507
3076,2504.2472200393677
3077,2505.014221906662
3078,2505.7972240448
3079,2506.6012258529663
3080,2507.382227897644
3081,2508.168229818344
3082,2508.9672317504883
3083,2509.796233892441
3084,2510.5962359905243
3085,2511.372237920761
3086,2512.1492397785187
3087,2512.9222416877747
3088,2513.69224357605
3089,2514.4712455272675
3090,2515.2572474479675
3091,2516.0852494239807
3092,2516.9502515792847
3093,2517.803253889084
3094,2518.6592559814453
3095,2519.5162580013275
3096,2520.342260122299
3097,2521.134262084961
3098,2521.9192640781403
3099,2522.706265926361
3100,2523.5012679100037
3101,2524.2952699661255
3102,2525.0982718467712
3103,2525.9442739486694
3104,2526.794275999069
3105,2527.5862782001495
3106,2528.3712799549103
3107,2529.1622819900513
3108,2529.9662840366364
3109,2530.758285999298
3110,2531.5202877521515
3111,2532.283289670944
3112,2533.0652916431427
3113,2533.8572936058044
3114,2534.6432955265045
3115,2535.4032974243164
3116,2536.156299352646
3117,2536.9273011684418
3118,2537.9993040561676
3119,2538.9673063755035
3120,2539.838308572769
3121,2540.6603105068207
3122,2541.463312625885
3123,2542.2743146419525
3124,2543.11531662941
3125,2544.024318933487
3126,2545.0193214416504
3127,2545.993323802948
3128,2546.9403262138367
3129,2547.871328353882
3130,2548.7753307819366
3131,2549.655332803726
3132,2550.5083351135254
3133,2551.3823370933533
3134,2552.237339258194
3135,2553.091341495514
3136,2553.908343553543
3137,2554.7193455696106
3138,2555.5403475761414
3139,2556.401349544525
3140,2557.276351928711
3141,2558.162353992462
3142,2559.001356124878
3143,2559.8103580474854
3144,2560.6113600730896
3145,2561.4323620796204
3146,2562.2813642024994
3147,2563.110366344452
3148,2563.914368391037
3149,2564.7373702526093
3150,2565.5863723754883
3151,2566.3763744831085
3152,2567.1573762893677
3153,2567.9413783550262
3154,2568.7293803691864
3155,2569.5123822689056
3156,2570.2623841762543
3157,2570.9933857917786
3158,2571.7133877277374
3159,2572.429389476776
3160,2573.157391309738
3161,2573.8873929977417
3162,2574.6363949775696
3163,2575.387396812439
3164,2576.1353986263275
3165,2576.8784005641937
3166,2577.6174023151398
3167,2578.3544042110443
3168,2579.114406108856
3169,2579.9114079475403
3170,2580.7284100055695
3171,2581.544412136078
3172,2582.3554141521454
3173,2583.1524159908295
3174,2583.941418170929
3175,2584.724420070648
3176,2585.5044219493866
3177,2586.3124239444733
3178,2587.1534259319305
3179,2587.984428167343
3180,2588.8514301776886
3181,2589.698432445526
3182,2590.516434431076
3183,2591.334436416626
3184,2592.1634385585785
3185,2593.0264406204224
3186,2593.9064428806305
3187,2594.79044508934
3188,2595.6594471931458
3189,2596.503449201584
3190,2597.3404512405396
3191,2598.1734533309937
3192,2598.9964554309845
3193,2599.828457593918
3194,2600.6954596042633
3195,2601.5704617500305
3196,2602.3954639434814
3197,2603.206465959549
3198,2604.037467956543
3199,2604.881469964981
3200,2605.750472307205
3201,2606.5434741973877
3202,2607.302476167679
3203,2608.0374779701233
3204,2608.7634797096252
3205,2609.489481449127
3206,2610.2374832630157
3207,2610.985485315323
3208,2611.7384870052338
3209,2612.478488922119
3210,2613.1894907951355
3211,2613.8814923763275
3212,2614.5524940490723
3213,2615.2114956378937
3214,2615.8734974861145
3215,2616.556499004364
3216,2617.263500928879
3217,2618.047502756119
3218,2618.9125049114227
3219,2619.923507452011
3220,2620.878509759903
3221,2621.805512189865
3222,2622.694514274597
3223,2623.567516565323
3224,2624.4105186462402
3225,2625.247520685196
3226,2626.0795226097107
3227,2626.9785249233246
3228,2627.889527320862
3229,2628.843529701233
3230,2629.7705318927765
3231,2630.686534166336
3232,2631.55153632164
3233,2632.402538537979
3234,2633.2595405578613
3235,2634.1135427951813
3236,2634.9565448760986
3237,2635.823546886444
3238,2636.7555491924286
3239,2637.6575515270233
3240,2638.512553691864
3241,2639.3345556259155
3242,2640.1625576019287
3243,2641.002559900284
3244,2641.8405618667603
3245,2642.69056391716
3246,2643.526566028595
3247,2644.3525681495667
3248,2645.1855702400208
3249,2646.045572280884
3250,2646.9015743732452
3251,2647.7575764656067
3252,2648.634578704834
3253,2649.4765808582306
3254,2650.3135828971863
3255,2651.1625850200653
3256,2652.0585873126984
3257,2652.961589574814
3258,2653.86759185791
3259,2654.786593914032
3260,2655.6465961933136
3261,2656.5145983695984
3262,2657.415600538254
3263,2658.339602947235
3264,2659.275605201721
3265,2660.180607318878
3266,2661.0596096515656
3267,2661.9356117248535
3268,2662.8366141319275
3269,2663.7396161556244
3270,2664.6806185245514
3271,2665.5656208992004
3272,2666.4256229400635
3273,2667.286625146866
3274,2668.1686272621155
3275,2669.0186293125153
3276,2669.841631412506
3277,2670.6526334285736
3278,2671.4896354675293
3279,2672.3776376247406
3280,2673.2296397686005
3281,2674.0516419410706
3282,2674.8506438732147
3283,2675.649645805359
3284,2676.450647830963
3285,2677.25864982605
3286,2678.1106519699097
3287,2678.972654104233
3288,2679.8516561985016
3289,2680.685658454895
3290,2681.531660556793
3291,2682.3576624393463
3292,2683.1716644763947
3293,2683.982666492462
3294,2684.791668653488
3295,2685.620670557022
3296,2686.5126729011536
3297,2687.4676752090454
3298,2688.4006774425507
3299,2689.272679567337
3300,2690.1186816692352
3301,2690.9746840000153
3302,2691.871686220169
3303,2692.7596883773804
3304,2693.638690471649
3305,2694.498692750931
3306,2695.3756947517395
3307,2696.2906970977783
3308,2697.2156994342804
3309,2698.0987017154694
3310,2698.946703672409
3311,2699.784705877304
3312,2700.573707818985
3313,2701.327709674835
3314,2702.070711374283
3315,2702.8177132606506
3316,2703.615715265274
3317,2704.4277172088623
3318,2705.2307193279266
3319,2706.031721353531
3320,2706.8247232437134
3321,2707.5837252140045
3322,2708.326726913452
3323,2709.0657289028168
3324,2709.8007307052612
3325,2710.571732521057
3326,2711.3597345352173
3327,2712.148736476898
3328,2712.927738428116
3329,2713.715740442276
3330,2714.528742313385
3331,2715.3557443618774
3332,2716.1317462921143
3333,2716.9057483673096
3334,2717.690750360489
3335,2718.502752304077
3336,2719.321754217148
3337,2720.1137561798096
3338,2720.868758201599
3339,2721.6247601509094
3340,2722.417762041092
3341,2723.2257640361786
3342,2724.010766029358
3343,2724.7977678775787
3344,2725.572769880295
3345,2726.334771633148
3346,2727.0727734565735
3347,2727.806775331497
3348,2728.5617773532867
3349,2729.3517792224884
3350,2730.1707813739777
3351,2731.0027832984924
3352,2731.8017852306366
3353,2732.6117873191833
3354,2733.437789440155
3355,2734.284791469574
3356,2735.120793581009
3357,2735.9167954921722
3358,2736.724797487259
3359,2737.523799419403
3360,2738.3268015384674
3361,2739.0808033943176
3362,2739.828805208206
3363,2740.6028072834015
3364,2741.4028091430664
3365,2742.178811073303
3366,2742.955812931061
3367,2743.724814891815
3368,2744.4728167057037
3369,2745.2248187065125
3370,2745.9928205013275
3371,2746.7648224830627
3372,2747.5378243923187
3373,2748.3038263320923
3374,2749.0788283348083
3375,2749.883830308914
3376,2750.7008323669434
3377,2751.505834341049
3378,2752.278836250305
3379,2753.031837940216
3380,2753.793839931488
3381,2754.5938420295715
3382,2755.3728437423706
3383,2756.1588459014893
3384,2756.9528477191925
3385,2757.7578496932983
3386,2758.525851726532
3387,2759.279853582382
3388,2760.0258553028107
3389,2760.7618572711945
3390,2761.498859167099
3391,2762.2448608875275
3392,2763.0538630485535
3393,2763.8988649845123
3394,2764.7738671302795
3395,2765.6198692321777
3396,2766.4308712482452
3397,2767.2238733768463
3398,2768.015875339508
3399,2768.8068771362305
3400,2769.5718791484833
3401,2770.3178808689117
3402,2771.091882944107
3403,2771.9378850460052
3404,2772.8178873062134
3405,2773.6878893375397
3406,2774.512891292572
3407,2775.290893316269
3408,2776.039895296097
3409,2776.788897037506
3410,2777.559898853302
3411,2778.411900997162
3412,2779.306903362274
3413,2780.234905719757
3414,2781.1499078273773
3415,2782.0059099197388
3416,2782.854912042618
3417,2783.6939141750336
3418,2784.5399162769318
3419,2785.361918449402
3420,2786.2229204177856
3421,2787.069922685623
3422,2787.929924726486
3423,2788.797926902771
3424,2789.6689291000366
3425,2790.506931066513
3426,2791.3239331245422
3427,2792.091935157776
3428,2792.840936899185
3429,2793.595938682556
3430,2794.3679406642914
3431,2795.1849427223206
3432,2796.0369448661804
3433,2796.8519468307495
3434,2797.635948896408
3435,2798.398950815201
3436,2799.166952610016
3437,2799.9469544887543
3438,2800.7449564933777
3439,2801.5419585704803
3440,2802.376960515976
3441,2803.193962574005
3442,2804.018964767456
3443,2804.8669667243958
3444,2805.7239689826965
3445,2806.593971014023
3446,2807.442973136902
3447,2808.2589752674103
3448,2809.0709772109985
3449,2809.910979270935
3450,2810.7979815006256
3451,2811.701983690262
3452,2812.602986097336
3453,2813.456988096237
3454,2814.308990240097
3455,2815.158992290497
3456,2816.0289945602417
3457,2816.8809967041016
3458,2817.7229986190796
3459,2818.5790009498596
3460,2819.4440031051636
3461,2820.343005180359
3462,2821.2460074424744
3463,2822.14900970459
3464,2823.0220119953156
3465,2823.8610138893127
3466,2824.711016178131
3467,2825.5570182800293
3468,2826.37802028656
3469,2827.191022157669
3470,2828.029024362564
3471,2828.8750264644623
3472,2829.7420284748077
3473,2830.564030647278
3474,2831.3710327148438
3475,2832.1630346775055
3476,2832.9730365276337
3477,2833.740038394928
3478,2834.5030403137207
3479,2835.2670423984528
3480,2836.058044195175
3481,2836.855046272278
3482,2837.6350481510162
3483,2838.4180500507355
3484,2839.210052013397
3485,2840.0420541763306
3486,2840.835056066513
3487,2841.6380581855774
3488,2842.4680602550507
3489,2843.3180623054504
3490,2844.158064365387
3491,2844.9870665073395
3492,2845.8320684432983
3493,2846.6380705833435
3494,2847.4400725364685
3495,2848.2340745925903
3496,2849.0520765781403
3497,2849.8460783958435
3498,2850.6240804195404
3499,2851.419082403183
3500,2852.252084493637
3501,2853.1100866794586
3502,2854.003088951111
3503,2854.8960909843445
3504,2855.7790932655334
3505,2856.5990953445435
3506,2857.434097290039
3507,2858.2820994853973
3508,2859.134101629257
3509,2859.9561035633087
3510,2860.7961056232452
3511,2861.653107881546
3512,2862.481109857559
3513,2863.286111831665
3514,2864.09011387825
3515,2864.900115966797
3516,2865.6921179294586
3517,2866.491119861603
3518,2867.3271219730377
3519,2868.2221240997314
3520,2869.112126350403
3521,2869.974128484726
3522,2870.8111305236816
3523,2871.688132762909
3524,2872.5591349601746
3525,2873.470137119293
3526,2874.3911395072937
3527,2875.2621417045593
3528,2876.1641438007355
3529,2877.0741460323334
3530,2877.9981484413147
3531,2878.8611505031586
3532,2879.7231526374817
3533,2880.6041548252106
3534,2881.5131571292877
3535,2882.417159318924
3536,2883.284161567688
3537,2884.144163608551
3538,2884.9781658649445
3539,2885.782167673111
3540,2886.5971698760986
3541,2887.424171924591
3542,2888.2811739444733
3543,2889.106176137924
3544,2889.9131779670715
3545,2890.742180109024
3546,2891.6321823596954
3547,2892.5401844978333
3548,2893.393186569214
3549,2894.2111887931824
3550,2895.0071907043457
3551,2895.809692621231
3552,2896.612194776535
3553,2897.433196783066
3554,2898.3121988773346
3555,2899.21720123291
3556,2900.10120344162
3557,2900.9492053985596
3558,2901.765207529068
3559,2902.569209575653
3560,2903.384211540222
3561,2904.2282135486603
3562,2905.0582156181335
3563,2905.874217748642
3564,2906.675219774246
3565,2907.4902217388153
3566,2908.282223701477
3567,2909.0672256946564
3568,2909.8842277526855
3569,2910.737229824066
3570,2911.5662317276
3571,2912.3772337436676
3572,2913.1992359161377
3573,2914.0462379455566
3574,2914.907240152359
3575,2915.7292420864105
3576,2916.5622441768646
3577,2917.4282462596893
3578,2918.320248603821
3579,2919.1762506961823
3580,2920.0212528705597
3581,2920.9132549762726
3582,2921.8072571754456
3583,2922.663259267807
3584,2923.501261472702
3585,2924.3572635650635
3586,2925.2072656154633
3587,2926.0392677783966
3588,2926.864269733429
3589,2927.7662720680237
3590,2928.6492743492126
3591,2929.576276540756
3592,2930.510278940201
3593,2931.432281255722
3594,2932.34228348732
3595,2933.2302856445312
3596,2934.1002876758575
3597,2935.0092899799347
3598,2935.915292263031
3599,2936.8392946720123
3600,2937.708296775818
3601,2938.5922989845276
3602,2939.462301015854
3603,2940.315303325653
3604,2941.146305322647
3605,2941.978307247162
3606,2942.7943093776703
3607,2943.5803112983704
3608,2944.325313091278
3609,2945.076315164566
3610,2945.9693171977997
3611,2946.9213197231293
3612,2947.878322124481
3613,2948.82332444191
3614,2949.7163264751434
3615,2950.561328649521
3616,2951.3823306560516
3617,2952.201332807541
3618,2953.0153348445892
3619,2953.8133368492126
3620,2954.6393387317657
3621,2955.564341068268
3622,2956.386343240738
3623,2957.1843450069427
3624,2958.0023472309113
3625,2958.84934926033
3626,2959.7213513851166
3627,2960.5783536434174
3628,2961.442355632782
3629,2962.307357788086
3630,2963.14035987854
3631,2963.961361885071
3632,2964.7553639411926
3633,2965.537365913391
3634,2966.3303678035736
3635,2967.165369987488
3636,2968.05637216568
3637,2968.942374229431
3638,2969.7933764457703
3639,2970.61137843132
3640,2971.435380458832
3641,2972.31538271904
3642,2973.193384885788
3643,2974.021386861801
3644,2974.8793890476227
3645,2975.7183911800385
3646,2976.5303931236267
3647,2977.3513951301575
3648,2978.2333974838257
3649,2979.1863996982574
3650,2980.1764023303986
3651,2981.135404586792
3652,2982.078407049179
3653,2983.020409345627
3654,2983.990411758423
3655,2984.9804141521454
3656,2985.956416606903
3657,2986.9024188518524
3658,2987.8754212856293
3659,2988.8444237709045
3660,2989.7594261169434
3661,2990.644428253174
3662,2991.5524303913116
3663,2992.516432762146
3664,2993.5574355125427
3665,2994.5864379405975
3666,2995.570440530777
3667,2996.4874427318573
3668,2997.3464448451996
3669,2998.2584471702576
3670,2999.211449623108
3671,3000.2584521770477
3672,3001.2904546260834
3673,3002.3124573230743
3674,3003.3084597587585
3675,3004.19846200943
3676,3005.1284642219543
3677,3006.0924665927887
3678,3007.1004691123962
3679,3008.0954716205597
3680,3009.054473876953
3681,3009.985476255417
3682,3010.936478614807
3683,3011.8874809741974
3684,3012.8364832401276
3685,3013.7844858169556
3686,3014.7864882946014
3687,3015.784490585327
3688,3016.7644929885864
3689,3017.7284955978394
3690,3018.6494977474213
3691,3019.5374999046326
3692,3020.4495022296906
3693,3021.352504491806
3694,3022.180506467819
3695,3022.9835085868835
3696,3023.7695105075836
3697,3024.565512418747
3698,3025.3735144138336
3699,3026.1725165843964
3700,3026.9385182857513
3701,3027.6975202560425
3702,3028.4565222263336
3703,3029.222524166107
3704,3029.9895260334015
3705,3030.752527952194
3706,3031.513529777527
3707,3032.3035316467285
3708,3033.1075336933136
3709,3033.918535709381
3710,3034.7375378608704
3711,3035.5265398025513
3712,3036.2885415554047
3713,3037.047543525696
3714,3037.81654548645
3715,3038.59854722023
3716,3039.3695492744446
3717,3040.1145510673523
3718,3040.8415529727936
3719,3041.5545547008514
3720,3042.2635564804077
3721,3043.0055582523346
3722,3043.7865602970123
3723,3044.568562269211
3724,3045.3375639915466
3725,3046.1155660152435
3726,3046.9095680713654
3727,3047.7525701522827
3728,3048.6325721740723
3729,3049.520574569702
3730,3050.39457654953
3731,3051.2445788383484
3732,3052.0735807418823
3733,3052.8795828819275
3734,3053.6895847320557
3735,3054.5285868644714
3736,3055.400588989258
3737,3056.2875912189484
3738,3057.140593290329
3739,3057.93359541893
3740,3058.7085971832275
3741,3059.482599258423
3742,3060.263601064682
3743,3061.0736031532288
3744,3061.9106051921844
3745,3062.7916073799133
3746,3063.6846096515656
3747,3064.5446116924286
3748,3065.379613876343
3749,3066.2016158103943
3750,3067.0336179733276
3751,3067.8856201171875
3752,3068.740622282028
3753,3069.5786242485046
3754,3070.418626308441
3755,3071.278628587723
3756,3072.1296305656433
3757,3072.9726326465607
3758,3073.786634683609
3759,3074.5946366786957
3760,3075.4206387996674
3761,3076.270640850067
3762,3077.137643098831
3763,3078.000645160675
3764,3078.8726472854614
3765,3079.7396495342255
3766,3080.592651605606
3767,3081.4216537475586
3768,3082.2506556510925
3769,3083.053657770157
3770,3083.837659597397
3771,3084.609661579132
3772,3085.3776636123657
3773,3086.1666655540466
3774,3087.0326676368713
3775,3087.9126698970795
3776,3088.779671907425
3777,3089.6216740608215
3778,3090.450676202774
3779,3091.2596781253815
3780,3092.059680223465
3781,3092.8626821041107
3782,3093.6826841831207
3783,3094.515686273575
3784,3095.3246881961823
3785,3096.102690219879
3786,3096.870692014694
3787,3097.7216942310333
3788,3098.52769613266
3789,3099.2916979789734
3790,3100.0316998958588
3791,3100.7527017593384
3792,3101.450703382492
3793,3102.138705253601
3794,3102.8277068138123
3795,3103.5377085208893
3796,3104.2667105197906
3797,3105.0157122612
3798,3105.787714242935
3799,3106.5807161331177
3800,3107.4247183799744
3801,3108.274720430374
3802,3109.123722553253
3803,3109.958724498749
3804,3110.790726661682
3805,3111.6147286891937
3806,3112.433730840683
3807,3113.2567327022552
3808,3114.079734802246
3809,3114.915736913681
3810,3115.7577390670776
3811,3116.5947411060333
3812,3117.4707431793213
3813,3118.3497455120087
3814,3119.248747587204
3815,3120.1387498378754
3816,3121.0007519721985
3817,3121.8757541179657
3818,3122.7887563705444
3819,3123.720758676529
3820,3124.663761138916
3821,3125.568763256073
3822,3126.466765642166
3823,3127.358767747879
3824,3128.2377700805664
3825,3129.0847721099854
3826,3129.8997740745544
3827,3130.7017760276794
3828,3131.55877828598
3829,3132.471780538559
3830,3133.4137828350067
3831,3134.3087849617004
3832,3135.1447870731354
3833,3135.9777891635895
3834,3136.819791316986
3835,3137.6967935562134
3836,3138.580795764923
3837,3139.514797925949
3838,3140.4358003139496
3839,3141.3008024692535
3840,3142.145804643631
3841,3142.9678065776825
3842,3143.794808626175
3843,3144.6478106975555
3844,3145.5128128528595
3845,3146.3488149642944
3846,3147.203817129135
3847,3148.084819316864
3848,3149.005821466446
3849,3149.916823863983
3850,3150.7868258953094
3851,3151.6548280715942
3852,3152.5158302783966
3853,3153.4078323841095
3854,3154.283834695816
3855,3155.1498367786407
3856,3156.0548391342163
3857,3156.964841365814
3858,3157.9158437252045
3859,3158.81684589386
3860,3159.743848323822
3861,3160.6758506298065
3862,3161.5438528060913
3863,3162.42285490036
3864,3163.3318572044373
3865,3164.270859479904
3866,3165.167861700058
3867,3166.0528638362885
3868,3166.9618661403656
3869,3167.8798685073853
3870,3168.808870792389
3871,3169.6938729286194
3872,3170.5838751792908
3873,3171.4698774814606
3874,3172.3718795776367
3875,3173.227881669998
3876,3174.0998837947845
3877,3174.9688861370087
3878,3175.8788883686066
3879,3176.7888906002045
3880,3177.6878929138184
3881,3178.6028950214386
3882,3179.523897409439
3883,3180.4108996391296
3884,3181.2689015865326
3885,3182.1199038028717
3886,3182.9979059696198
3887,3183.8519082069397
3888,3184.705910205841
3889,3185.555912256241
3890,3186.4559144973755
3891,3187.390916824341
3892,3188.315919160843
3893,3189.196921348572
3894,3190.0829236507416
3895,3190.969925880432
3896,3191.8969280719757
3897,3192.789930343628
3898,3193.651932477951
3899,3194.5219345092773
3900,3195.405936717987
3901,3196.3459391593933
3902,3197.292941570282
3903,3198.2379438877106
3904,3199.1479461193085
3905,3200.00594830513
3906,3200.85595035553
3907,3201.7659525871277
3908,3202.689954996109
3909,3203.6359572410583
3910,3204.5849595069885
3911,3205.47896194458
3912,3206.380964040756
3913,3207.262966156006
3914,3208.1519684791565
3915,3209.0199706554413
3916,3209.9139728546143
3917,3210.795974969864
3918,3211.678977251053
3919,3212.5469794273376
3920,3213.40798163414
3921,3214.2569835186005
3922,3215.070985555649
3923,3215.8969876766205
3924,3216.7299897670746
3925,3217.603991985321
3926,3218.4869940280914
3927,3219.348996400833
3928,3220.1849982738495
3929,3221.04000043869
3930,3221.8960025310516
3931,3222.741004705429
3932,3223.5730068683624
3933,3224.405008792877
3934,3225.2800109386444
3935,3226.1470131874084
3936,3227.00301527977
3937,3227.8770174980164
3938,3228.7520196437836
3939,3229.6160218715668
3940,3230.505023956299
3941,3231.401026248932
3942,3232.250028371811
3943,3233.070030450821
3944,3233.8860323429108
3945,3234.7270345687866
3946,3235.5950367450714
3947,3236.4790387153625
3948,3237.3620409965515
3949,3238.231043100357
3950,3239.103045463562
3951,3239.993047475815
3952,3240.886049747467
3953,3241.7290518283844
3954,3242.5800540447235
3955,3243.405055999756
3956,3244.252058029175
3957,3245.1220602989197
3958,3245.9750623703003
3959,3246.848064661026
3960,3247.737066745758
3961,3248.6450691223145
3962,3249.5470712184906
3963,3250.363073348999
3964,3251.181075334549
3965,3252.000077486038
3966,3252.850079536438
3967,3253.7080817222595
3968,3254.5700838565826
3969,3255.4050858020782
3970,3256.2510879039764
3971,3257.107089996338
3972,3257.9910922050476
3973,3258.9030945301056
3974,3259.806096792221
3975,3260.669098854065
3976,3261.5221009254456
3977,3262.3771030902863
3978,3263.2441053390503
3979,3264.0821073055267
3980,3264.943109512329
3981,3265.840111732483
3982,3266.744113922119
3983,3267.6211161613464
3984,3268.5011184215546
3985,3269.3851206302643
3986,3270.267122745514
3987,3271.118124961853
3988,3271.973126888275
3989,3272.8361291885376
3990,3273.6861312389374
3991,3274.526133298874
3992,3275.3661353588104
3993,3276.2321376800537
3994,3277.123139858246
3995,3278.0061419010162
3996,3278.887144088745
3997,3279.7631464004517
3998,3280.6001484394073
3999,3281.451150417328
4000,3282.3141527175903
4001,3283.1711547374725
4002,3284.0231568813324
4003,3284.8531589508057
4004,3285.6861610412598
4005,3286.5571632385254
4006,3287.4321653842926
4007,3288.2861676216125
4008,3289.145169734955
4009,3290.016171693802
4010,3290.9041740894318
4011,3291.793176174164
4012,3292.672178506851
4013,3293.546180486679
4014,3294.418182849884
4015,3295.276184797287
4016,3296.125186920166
4017,3296.9811890125275
4018,3297.870191335678
4019,3298.794193506241
4020,3299.7021958827972
4021,3300.578197956085
4022,3301.443200111389
4023,3302.308202266693
4024,3303.194204568863
4025,3304.057206630707
4026,3304.9122087955475
4027,3305.754210948944
4028,3306.617213010788
4029,3307.4752151966095
4030,3308.315217256546
4031,3309.154219388962
4032,3309.9932215213776
4033,3310.857223510742
4034,3311.7662258148193
4035,3312.6422278881073
4036,3313.5212302207947
4037,3314.4082324504852
4038,3315.30823469162
4039,3316.2032368183136
4040,3317.0752389431
4041,3317.9342410564423
4042,3318.788243293762
4043,3319.6572453975677
4044,3320.5282475948334
4045,3321.4062497615814
4046,3322.2832520008087
4047,3323.160254240036
4048,3324.0322563648224
4049,3324.900258541107
4050,3325.7752606868744
4051,3326.64626288414
4052,3327.4972648620605
4053,3328.309266805649
4054,3329.1322689056396
4055,3329.977271080017
4056,3330.8542733192444
4057,3331.8012754917145
4058,3332.724277973175
4059,3333.600280046463
4060,3334.4242820739746
4061,3335.240284204483
4062,3336.060286283493
4063,3336.904288291931
4064,3337.8052904605865
4065,3338.692292690277
4066,3339.5952949523926
4067,3340.5022971630096
4068,3341.395299434662
4069,3342.270301580429
4070,3343.1103036403656
4071,3343.9463057518005
4072,3344.8033077716827
4073,3345.6743099689484
4074,3346.5723123550415
4075,3347.491314649582
4076,3348.348316669464
4077,3349.2103188037872
4078,3350.094321012497
4079,3350.9923231601715
4080,3351.8703253269196
4081,3352.744327545166
4082,3353.6393299102783
4083,3354.5693321228027
4084,3355.489334344864
4085,3356.3893365859985
4086,3357.2913389205933
4087,3358.2053411006927
4088,3359.1443436145782
4089,3360.0853457450867
4090,3360.9903481006622
4091,3361.906350374222
4092,3362.825352668762
4093,3363.7463550567627
4094,3364.6443572044373
4095,3365.5453593730927
4096,3366.4683616161346
4097,3367.3933639526367
4098,3368.2643661499023
4099,3369.127368211746
4100,3369.9763703346252
4101,3370.8233726024628
4102,3371.677374601364
4103,3372.574376821518
4104,3373.4803791046143
4105,3374.4163813591003
4106,3375.3013837337494
4107,3376.1823859214783
4108,3377.064388036728
4109,3377.939390182495
4110,3378.77739238739
4111,3379.6313943862915
4112,3380.505396604538
4113,3381.39839887619
4114,3382.2874009609222
4115,3383.176403284073
4116,3384.08140540123
4117,3385.0004076957703
4118,3385.8944098949432
4119,3386.747411966324
4120,3387.608414173126
4121,3388.468416452408
4122,3389.3644185066223
4123,3390.2414207458496
4124,3391.1204228401184
4125,3392.0084252357483
4126,3392.869427204132
4127,3393.7004294395447
4128,3394.507431268692
4129,3395.3444333076477
4130,3396.223435640335
4131,3397.1094377040863
4132,3397.9734399318695
4133,3398.86044216156
4134,3399.741444349289
4135,3400.630446434021
4136,3401.495448589325
4137,3402.338450908661
4138,3403.198452949524
4139,3404.0884552001953
4140,3405.0114574432373
4141,3405.897459745407
4142,3406.7674617767334
4143,3407.6264638900757
4144,3408.5224661827087
4145,3409.386468410492
4146,3410.2394704818726
4147,3411.1154725551605
4148,3412.0354747772217
4149,3412.961477279663
4150,3413.89847946167
4151,3414.808481693268
4152,3415.716484069824
4153,3416.5914862155914
4154,3417.4844884872437
4155,3418.3764905929565
4156,3419.2564928531647
4157,3420.178495168686
4158,3421.127497434616
4159,3422.1254999637604
4160,3423.052502155304
4161,3423.9685044288635
4162,3424.894506931305
4163,3425.8025090694427
4164,3426.6735112667084
4165,3427.573513507843
4166,3428.494515657425
4167,3429.3815178871155
4168,3430.2615201473236
4169,3431.1525223255157
4170,3432.0735247135162
4171,3432.9475269317627
4172,3433.803529024124
4173,3434.7045311927795
4174,3435.6295335292816
4175,3436.575535774231
4176,3437.471538066864
4177,3438.3455402851105
4178,3439.241542339325
4179,3440.1385447978973
4180,3441.0095467567444
4181,3441.8945491313934
4182,3442.8045513629913
4183,3443.74755358696
4184,3444.6865558624268
4185,3445.592558145523
4186,3446.5395605564117
4187,3447.5045630931854
4188,3448.4965653419495
4189,3449.4605679512024
4190,3450.4245703220367
4191,3451.4195725917816
4192,3452.357574939728
4193,3453.2585773468018
4194,3454.1685795783997
4195,3455.1315820217133
4196,3456.161584377289
4197,3457.1405868530273
4198,3458.0965893268585
4199,3459.060591697693
4200,3459.9615938663483
4201,3460.8555960655212
4202,3461.7465982437134
4203,3462.7166006565094
4204,3463.652603149414
4205,3464.665605545044
4206,3465.7106082439423
4207,3466.71861076355
4208,3467.6506130695343
4209,3468.606615304947
4210,3469.5596177577972
4211,3470.471620082855
4212,3471.2916221618652
4213,3472.1006240844727
4214,3472.912626028061
4215,3473.734628200531
4216,3474.5426301956177
4217,3475.3396320343018
4218,3476.1316339969635
4219,3476.9046359062195
4220,3477.6776378154755
4221,3478.440639734268
4222,3479.2126417160034
4223,3479.98664355278
4224,3480.7606456279755
4225,3481.534647464752
4226,3482.323649406433
4227,3483.1006515026093
4228,3483.874653339386
4229,3484.6536552906036
4230,3485.431657075882
4231,3486.2306592464447
4232,3487.016661167145
4233,3487.7876629829407
4234,3488.5636649131775
4235,3489.3466668128967
4236,3490.152668952942
4237,3490.96467089653
4238,3491.787672996521
4239,3492.6226749420166
4240,3493.4776771068573
4241,3494.3596794605255
4242,3495.202681541443
4243,3496.0196833610535
4244,3496.8256855010986
4245,3497.6296875476837
4246,3498.444689512253
4247,3499.293691635132
4248,3500.1626937389374
4249,3501.020695924759
4250,3501.877697944641
4251,3502.742700099945
4252,3503.6037023067474
4253,3504.4827044010162
4254,3505.3447065353394
4255,3506.1927087306976
4256,3507.024710893631
4257,3507.8517129421234
4258,3508.675714969635
4259,3509.5107169151306
4260,3510.386719226837
4261,3511.250721216202
4262,3512.088723421097
4263,3512.921725511551
4264,3513.7467274665833
4265,3514.574729681015
4266,3515.3917315006256
4267,3516.207733631134
4268,3517.017735719681
4269,3517.8287377357483
4270,3518.6247396469116
4271,3519.4187417030334
4272,3520.219743490219
4273,3521.041745662689
4274,3521.854747533798
4275,3522.6787497997284
4276,3523.528751850128
4277,3524.370754003525
4278,3525.185755968094
4279,3525.984757900238
4280,3526.7637598514557
4281,3527.5247616767883
4282,3528.2807636260986
4283,3529.047765493393
4284,3529.8847675323486
4285,3530.7357697486877
4286,3531.5547716617584
4287,3532.356773853302
4288,3533.1317756175995
4289,3533.957777738571
4290,3534.746779680252
4291,3535.4947814941406
4292,3536.2267832756042
4293,3536.947785139084
4294,3537.6607868671417
4295,3538.384788751602
4296,3539.1697907447815
4297,3539.9697926044464
4298,3540.704794406891
4299,3541.418796300888
4300,3542.117798089981
4301,3542.7957997322083
4302,3543.4688012599945
4303,3544.1488029956818
4304,3544.823804616928
4305,3545.55380654335
4306,3546.4398086071014
4307,3547.329810857773
4308,3548.195813179016
4309,3549.0478150844574
4310,3549.9118173122406
4311,3550.7368195056915
4312,3551.5498213768005
4313,3552.3518233299255
4314,3553.1458253860474
4315,3553.939827442169
4316,3554.7488293647766
4317,3555.570831298828
4318,3556.379833459854
4319,3557.1828353405
4320,3558.0328373908997
4321,3558.937839746475
4322,3559.855842113495
4323,3560.7538442611694
4324,3561.595846414566
4325,3562.447848558426
4326,3563.2978506088257
4327,3564.154852628708
4328,3565.010854959488
4329,3565.872857093811
4330,3566.733859062195
4331,3567.6258614063263
4332,3568.523863554001
4333,3569.3928656578064
4334,3570.2408678531647
4335,3571.102869987488
4336,3571.99587225914
4337,3572.887874364853
4338,3573.7928767204285
4339,3574.6658787727356
4340,3575.555881023407
4341,3576.465883255005
4342,3577.342885494232
4343,3578.189887523651
4344,3579.0458896160126
4345,3579.9158918857574
4346,3580.813894033432
4347,3581.698896408081
4348,3582.588898420334
4349,3583.5019006729126
4350,3584.3559029102325
4351,3585.197905063629
4352,3586.005907058716
4353,3586.8139090538025
4354,3587.637911081314
4355,3588.485913038254
4356,3589.3769154548645
4357,3590.2529175281525
4358,3591.078919649124
4359,3591.9069216251373
4360,3592.747923851013
4361,3593.6049258708954
4362,3594.460927963257
4363,3595.2819299697876
4364,3596.1159319877625
4365,3596.9539341926575
4366,3597.8109362125397
4367,3598.669938325882
4368,3599.506940603256
4369,3600.3559427261353
4370,3601.234944820404
4371,3602.0909469127655
4372,3602.9399490356445
4373,3603.7869510650635
4374,3604.62895321846
4375,3605.4419553279877
4376,3606.253957271576
4377,3607.073959350586
4378,3607.9029614925385
4379,3608.7449634075165
4380,3609.5789654254913
4381,3610.430967569351
4382,3611.274969816208
4383,3612.087971687317
4384,3612.9119737148285
4385,3613.755975961685
4386,3614.58997797966
4387,3615.4449801445007
4388,3616.319982290268
4389,3617.226984500885
4390,3618.080986738205
4391,3618.9339888095856
4392,3619.803990840912
4393,3620.709993124008
4394,3621.6309955120087
4395,3622.52099776268
4396,3623.428999900818
4397,3624.336002111435
4398,3625.2310044765472
4399,3626.1270065307617
4400,3627.022008895874
4401,3627.882010936737
4402,3628.7610132694244
4403,3629.6220152378082
4404,3630.490017414093
4405,3631.324019432068
4406,3632.1550216674805
4407,3633.009023666382
4408,3633.8690259456635
4409,3634.6980278491974
4410,3635.5150299072266
4411,3636.3510320186615
4412,3637.2150342464447
4413,3638.056036233902
4414,3638.879038333893
4415,3639.7010402679443
4416,3640.5260424613953
4417,3641.32604432106
4418,3642.1420464515686
4419,3642.9970486164093
4420,3643.8670506477356
4421,3644.7000527381897
4422,3645.528054714203
4423,3646.3380568027496
4424,3647.137058734894
4425,3647.925060749054
4426,3648.715062856674
4427,3649.529064655304
4428,3650.369066953659
4429,3651.1970689296722
4430,3652.0270709991455
4431,3652.8450729846954
4432,3653.6750750541687
4433,3654.487076997757
4434,3655.2850790023804
4435,3656.1170811653137
4436,3656.9660832881927
4437,3657.7840852737427
4438,3658.6080873012543
4439,3659.4430894851685
4440,3660.291091442108
4441,3661.112093448639
4442,3661.9350955486298
4443,3662.797097682953
4444,3663.6490998268127
4445,3664.49210190773
4446,3665.3831040859222
4447,3666.264106273651
4448,3667.1271085739136
4449,3667.981110572815
4450,3668.8521127700806
4451,3669.740114927292
4452,3670.599117040634
4453,3671.448119163513
4454,3672.268121242523
4455,3673.0831232070923
4456,3673.8711252212524
4457,3674.6581270694733
4458,3675.512129306793
4459,3676.3991315364838
4460,3677.287133693695
4461,3678.1241357326508
4462,3678.9531378746033
4463,3679.792140007019
4464,3680.637141942978
4465,3681.5001442432404
4466,3682.3721463680267
4467,3683.2541484832764
4468,3684.141150712967
4469,3685.0101528167725
4470,3685.8951551914215
4471,3686.793157339096
4472,3687.6931595802307
4473,3688.563161611557
4474,3689.445163965225
4475,3690.3481662273407
4476,3691.2661683559418
4477,3692.1581707000732
4478,3693.037172794342
4479,3693.931174993515
4480,3694.816177368164
4481,3695.7151794433594
4482,3696.60418176651
4483,3697.525183916092
4484,3698.450186252594
4485,3699.3691885471344
4486,3700.288190841675
4487,3701.2011930942535
4488,3702.0761952400208
4489,3702.9881975650787
4490,3703.9101998806
4491,3704.8582022190094
4492,3705.801204442978
4493,3706.7542068958282
4494,3707.6682090759277
4495,3708.545211315155
4496,3709.4432134628296
4497,3710.372215986252
4498,3711.2982182502747
4499,3712.2212204933167
4500,3713.174222946167
4501,3714.10022521019
4502,3714.991227388382
4503,3715.9152295589447
4504,3716.853231906891
4505,3717.7322342395782
4506,3718.626236438751
4507,3719.518238544464
4508,3720.4002408981323
4509,3721.2652430534363
4510,3722.1702451705933
4511,3723.0582473278046
4512,3723.9272496700287
4513,3724.7772517204285
4514,3725.643253803253
4515,3726.5412559509277
4516,3727.40225815773
4517,3728.2792603969574
4518,3729.177262544632
4519,3730.103264808655
4520,3730.9902670383453
4521,3731.871269226074
4522,3732.7662715911865
4523,3733.6452736854553
4524,3734.518275976181
4525,3735.410278081894
4526,3736.302280187607
4527,3737.1732823848724
4528,3738.046284675598
4529,3738.9452867507935
4530,3739.8592891693115
4531,3740.733291387558
4532,3741.630293607712
4533,3742.5142958164215
4534,3743.370297908783
4535,3744.2312998771667
4536,3745.1093022823334
4537,3746.023304462433
4538,3746.8983066082
4539,3747.776308774948
4540,3748.675311088562
4541,3749.556313276291
4542,3750.444315433502
4543,3751.3503177165985
4544,3752.217319726944
4545,3753.040321826935
4546,3753.8373239040375
4547,3754.6363258361816
4548,3755.4413278102875
4549,3756.23832988739
4550,3757.0203318595886
4551,3757.8123338222504
4552,3758.633335828781
4553,3759.436337709427
4554,3760.242339849472
4555,3761.0463416576385
4556,3761.847343683243
4557,3762.6363456249237
4558,3763.4273476600647
4559,3764.236349582672
4560,3765.058351755142
4561,3765.864353656769
4562,3766.673355817795
4563,3767.4973578453064
4564,3768.3403599262238
4565,3769.1923620700836
4566,3770.03036403656
4567,3770.8993661403656
4568,3771.7723684310913
4569,3772.6173706054688
4570,3773.463372707367
4571,3774.326374769211
4572,3775.2113769054413
4573,3776.1033792495728
4574,3776.9983813762665
4575,3777.887383699417
4576,3778.748385667801
4577,3779.615387916565
4578,3780.4893901348114
4579,3781.387392282486
4580,3782.2693943977356
4581,3783.1553966999054
4582,3784.034398794174
4583,3784.918401002884
4584,3785.7634031772614
4585,3786.603405237198
4586,3787.4694073200226
4587,3788.34840965271
4588,3789.2184116840363
4589,3790.100413799286
4590,3790.9764161109924
4591,3791.805418252945
4592,3792.633420228958
4593,3793.4554221630096
4594,3794.2754242420197
4595,3795.091426372528
4596,3795.9104282855988
4597,3796.7314302921295
4598,3797.6174325942993
4599,3798.4624347686768
4600,3799.329436779022
4601,3800.1884388923645
4602,3801.020441055298
4603,3801.8574430942535
4604,3802.6984453201294
4605,3803.5614473819733
4606,3804.4514496326447
4607,3805.331451654434
4608,3806.228453874588
4609,3807.116456270218
4610,3807.9694583415985
4611,3808.8534605503082
4612,3809.740462779999
4613,3810.6034648418427
4614,3811.462466955185
4615,3812.326469182968
4616,3813.1994712352753
4617,3814.0604734420776
4618,3814.901475429535
4619,3815.768477678299
4620,3816.614479780197
4621,3817.4594819545746
4622,3818.3404841423035
4623,3819.191486120224
4624,3820.0354883670807
4625,3820.894490480423
4626,3821.739492416382
4627,3822.5704946517944
4628,3823.391496658325
4629,3824.220498561859
4630,3825.0515007972717
4631,3825.881502866745
4632,3826.7085049152374
4633,3827.5315067768097
4634,3828.35350894928
4635,3829.198511123657
4636,3830.0555131435394
4637,3830.927515268326
4638,3831.7665174007416
4639,3832.6205196380615
4640,3833.4595215320587
4641,3834.291523694992
4642,3835.1055257320404
4643,3835.9095277786255
4644,3836.704529762268
4645,3837.4995317459106
4646,3838.295533657074
4647,3839.1065356731415
4648,3839.935537815094
4649,3840.7445397377014
4650,3841.5495417118073
4651,3842.355543613434
4652,3843.1505455970764
4653,3843.9565477371216
4654,3844.7565495967865
4655,3845.559551715851
4656,3846.3575537204742
4657,3847.181555747986
4658,3848.057557821274
4659,3848.9265599250793
4660,3849.778562068939
4661,3850.6575644016266
4662,3851.524566411972
4663,3852.360568523407
4664,3853.1925706863403
4665,3854.0365726947784
4666,3854.9305748939514
4667,3855.8245770931244
4668,3856.7235794067383
4669,3857.634581565857
4670,3858.548583984375
4671,3859.441586256027
4672,3860.3455884456635
4673,3861.228590488434
4674,3862.0915927886963
4675,3862.9485948085785
4676,3863.877597093582
4677,3864.85359954834
4678,3865.809602022171
4679,3866.721604347229
4680,3867.647606611252
4681,3868.565608739853
4682,3869.4446110725403
4683,3870.334613084793
4684,3871.2576155662537
4685,3872.2226178646088
4686,3873.1326200962067
4687,3874.037622451782
4688,3874.953624725342
4689,3875.8826270103455
4690,3876.7756292819977
4691,3877.661631345749
4692,3878.5356335639954
4693,3879.4166357517242
4694,3880.295637845993
4695,3881.1826400756836
4696,3882.0766422748566
4697,3882.950644493103
4698,3883.8136467933655
4699,3884.71164894104
4700,3885.624651193619
4701,3886.5296533107758
4702,3887.4186556339264
4703,3888.31365776062
4704,3889.2006599903107
4705,3890.0866622924805
4706,3890.973664522171
4707,3891.8956668376923
4708,3892.8156690597534
4709,3893.7116713523865
4710,3894.6056735515594
4711,3895.547675848007
4712,3896.4806780815125
4713,3897.3946805000305
4714,3898.31068277359
4715,3899.2126848697662
4716,3900.1046872138977
4717,3900.9736893177032
4718,3901.8926916122437
4719,3902.808693885803
4720,3903.723696231842
4721,3904.641698360443
4722,3905.588700771332
4723,3906.5747032165527
4724,3907.4907054901123
4725,3908.424707889557
4726,3909.331710100174
4727,3910.2507123947144
4728,3911.1267144680023
4729,3911.9937167167664
4730,3912.8987188339233
4731,3913.771721124649
4732,3914.6007232666016
4733,3915.423725128174
4734,3916.2607271671295
4735,3917.0777292251587
4736,3917.8557312488556
4737,3918.608733177185
4738,3919.345734834671
4739,3920.0847368240356
4740,3920.8247385025024
4741,3921.5757405757904
4742,3922.331742286682
4743,3923.096744298935
4744,3923.8597462177277
4745,3924.607748031616
4746,3925.34174990654
4747,3926.077751636505
4748,3926.8287534713745
4749,3927.597755432129
4750,3928.3917574882507
4751,3929.1997594833374
4752,3930.0127613544464
4753,3930.811763525009
4754,3931.614765405655
4755,3932.4117674827576
4756,3933.207769393921
4757,3933.9977712631226
4758,3934.7737731933594
4759,3935.555775165558
4760,3936.362777233124
4761,3937.2137792110443
4762,3938.101781606674
4763,3939.0057837963104
4764,3939.890785932541
4765,3940.754788160324
4766,3941.620790243149
4767,3942.500792503357
4768,3943.3567945957184
4769,3944.17879652977
4770,3944.99879860878
4771,3945.8388006687164
4772,3946.7368030548096
4773,3947.637805223465
4774,3948.515807390213
4775,3949.3928096294403
4776,3950.2708117961884
4777,3951.133813858032
4778,3951.9788160324097
4779,3952.7998180389404
4780,3953.602819919586
4781,3954.382822036743
4782,3955.1708238124847
4783,3955.984825849533
4784,3956.8318281173706
4785,3957.6928300857544
4786,3958.5148322582245
4787,3959.3248343467712
4788,3960.119836330414
4789,3960.9078381061554
4790,3961.6858401298523
4791,3962.4588420391083
4792,3963.2228438854218
4793,3964.0018458366394
4794,3964.7978477478027
4795,3965.5948498249054
4796,3966.4288518428802
4797,3967.2588539123535
4798,3968.0898559093475
4799,3968.897857904434
4800,3969.693860054016
4801,3970.4878618717194
4802,3971.2938640117645
4803,3972.0798659324646
4804,3972.8538677692413
4805,3973.6228697299957
4806,3974.4038717746735
4807,3975.2098736763
4808,3976.003875732422
4809,3976.7958776950836
4810,3977.590879678726
4811,3978.408881664276
4812,3979.200883626938
4813,3979.9718854427338
4814,3980.735887527466
4815,3981.4918892383575
4816,3982.2528913021088
4817,3982.9978930950165
4818,3983.792895078659
4819,3984.7618973255157
4820,3985.688899755478
4821,3986.6019020080566
4822,3987.507904291153
4823,3988.333906173706
4824,3989.129908323288
4825,3989.872410058975
4826,3990.614912033081
4827,3991.3299136161804
4828,3992.0229153633118
4829,3992.70591711998
4830,3993.387918949127
4831,3994.0579204559326
4832,3994.7309222221375
4833,3995.415923833847
4834,3996.0979256629944
4835,3996.774927139282
4836,3997.4699289798737
4837,3998.191930770874
4838,3998.905932664871
4839,3999.6179342269897
4840,4000.3489360809326
4841,4001.1099379062653
4842,4001.9579401016235
4843,4002.86594247818
4844,4003.7749445438385
4845,4004.6559467315674
4846,4005.4959490299225
4847,4006.30695104599
4848,4007.082952976227
4849,4007.868954896927
4850,4008.617956638336
4851,4009.3319585323334
4852,4010.0289602279663
4853,4010.712961912155
4854,4011.3779635429382
4855,4012.035965204239
4856,4012.6899666786194
4857,4013.338968515396
4858,4013.9779698848724
4859,4014.6059715747833
4860,4015.230973005295
4861,4015.857974767685
4862,4016.486976146698
4863,4017.1109776496887
4864,4017.730979204178
4865,4018.3459808826447
4866,4018.9749825000763
4867,4019.625983953476
4868,4020.3019857406616
4869,4021.0019874572754
4870,4021.7419893741608
4871,4022.4739911556244
4872,4023.205992937088
4873,4023.941994667053
4874,4024.680996656418
4875,4025.4239983558655
4876,4026.175000190735
4877,4026.9170022010803
4878,4027.683004140854
4879,4028.45400595665
4880,4029.20600771904
4881,4029.949009656906
4882,4030.7000114917755
4883,4031.4700133800507
4884,4032.2630155086517
4885,4033.0480172634125
4886,4033.8310194015503
4887,4034.5770211219788
4888,4035.30402302742
4889,4036.0260248184204
4890,4036.785026550293
4891,4037.621028661728
4892,4038.4620308876038
4893,4039.3120329380035
4894,4040.0930347442627
4895,4040.882036924362
4896,4041.685038805008
4897,4042.4590406417847
4898,4043.194042444229
4899,4043.9370443820953
4900,4044.761046409607
4901,4045.7660489082336
4902,4046.6500511169434
4903,4047.5250532627106
4904,4048.5000557899475
4905,4049.5420582294464
4906,4050.458060503006
4907,4051.32706284523
4908,4052.322065114975
4909,4053.407068014145
4910,4054.328070163727
4911,4055.2330725193024
4912,4056.3240752220154
4913,4057.3490777015686
4914,4058.2410798072815
4915,4059.267082452774
4916,4060.3330850601196
4917,4061.2800874710083
4918,4062.1680896282196
4919,4063.158092021942
4920,4064.1840946674347
4921,4065.0940968990326
4922,4066.045099258423
4923,4067.0391018390656
4924,4067.9751040935516
4925,4068.82310628891
4926,4069.665108203888
4927,4070.519110441208
4928,4071.4011125564575
4929,4072.275114774704
4930,4073.1361169815063
4931,4074.020119190216
4932,4074.9021213054657
4933,4075.7911236286163
4934,4076.626125574112
4935,4077.430127620697
4936,4078.2421295642853
4937,4079.092131614685
4938,4079.970133781433
4939,4080.8231360912323
4940,4081.6491379737854
4941,4082.5081400871277
4942,4083.414142370224
4943,4084.3141446113586
4944,4085.162146806717
4945,4085.9731488227844
4946,4086.794150829315
4947,4087.649152994156
4948,4088.526155233383
4949,4089.4451575279236
4950,4090.304159641266
4951,4091.146161556244
4952,4092.0201637744904
4953,4092.9281661510468
4954,4093.834168434143
4955,4094.676170349121
4956,4095.497172355652
4957,4096.3411746025085
4958,4097.218176841736
4959,4098.15017914772
4960,4099.039181232452
4961,4099.931183576584
4962,4100.849185705185
4963,4101.768187999725
4964,4102.6881902217865
4965,4103.566192388535
4966,4104.413194656372
4967,4105.284196853638
4968,4106.193198919296
4969,4107.15620136261
4970,4108.080203771591
4971,4108.953205823898
4972,4109.8462080955505
4973,4110.765210390091
4974,4111.730212688446
4975,4112.612215042114
4976,4113.48121714592
4977,4114.4052193164825
4978,4115.4272220134735
4979,4116.46422457695
4980,4117.369226694107
4981,4118.284229040146
4982,4119.136231184006
4983,4119.973233222961
4984,4120.798235416412
4985,4121.6262373924255
4986,4122.469239473343
4987,4123.317241668701
4988,4124.143243551254
4989,4124.95224571228
4990,4125.772247552872
4991,4126.623249769211
4992,4127.47025179863
4993,4128.279253959656
4994,4129.072255849838
4995,4129.868257761002
4996,4130.709259986877
4997,4131.5872621536255
4998,4132.512264490128
4999,4133.425266742706
5000,4134.265268802643
5001,4135.129270792007
5002,4136.031273126602
5003,4136.979275465012
5004,4137.939277887344
5005,4138.824280023575
5006,4139.716282367706
5007,4140.646284580231
5008,4141.615287065506
5009,4142.593289375305
5010,4143.472291707993
5011,4144.329293727875
5012,4145.217295885086
5013,4146.147298336029
5014,4147.105300664902
5015,4148.059303045273
5016,4149.005305290222
5017,4149.908307552338
5018,4150.8413100242615
5019,4151.814312458038
5020,4152.7743146419525
5021,4153.726317167282
5022,4154.669319391251
5023,4155.531321525574
5024,4156.421323776245
5025,4157.343326091766
5026,4158.27232837677
5027,4159.210330724716
5028,4160.095332860947
5029,4161.005335092545
5030,4161.929337501526
5031,4162.880339860916
5032,4163.831342220306
5033,4164.73034453392
5034,4165.658346652985
5035,4166.613349199295
5036,4167.573351383209
5037,4168.511353731155
5038,4169.38335609436
5039,4170.235357999802
5040,4171.11336016655
5041,4172.047362565994
5042,4173.004364967346
5043,4173.907367229462
5044,4174.845369577408
5045,4175.786371946335
5046,4176.741374254227
5047,4177.652376413345
5048,4178.515378713608
5049,4179.384380817413
5050,4180.298382997513
5051,4181.232385396957
5052,4182.1753878593445
5053,4183.092390060425
5054,4183.978392124176
5055,4184.863394498825
5056,4185.7643966674805
5057,4186.661398887634
5058,4187.53440117836
5059,4188.405403137207
5060,4189.291405439377
5061,4190.199407577515
5062,4191.101409912109
5063,4191.983412027359
5064,4192.858414173126
5065,4193.746416568756
5066,4194.646418809891
5067,4195.568421125412
5068,4196.466423273087
5069,4197.358425378799
5070,4198.255427598953
5071,4199.167429924011
5072,4200.086432218552
5073,4200.982434511185
5074,4201.892436742783
5075,4202.806438922882
5076,4203.717441320419
5077,4204.624443531036
5078,4205.499445676804
5079,4206.3804478645325
5080,4207.261450052261
5081,4208.14245223999
5082,4208.986454248428
5083,4209.800456285477
5084,4210.708458662033
5085,4211.621460914612
5086,4212.451462984085
5087,4213.236464977264
5088,4213.992466688156
5089,4214.730468511581
5090,4215.470470428467
5091,4216.216472387314
5092,4216.952474117279
5093,4217.6764760017395
5094,4218.383477687836
5095,4219.093479394913
5096,4219.857481241226
5097,4220.7584836483
5098,4221.734486103058
5099,4222.670488357544
5100,4223.563490629196
5101,4224.42649269104
5102,4225.272494792938
5103,4226.136497020721
5104,4226.986499071121
5105,4227.832501173019
5106,4228.688503265381
5107,4229.60150551796
5108,4230.544507980347
5109,4231.476510286331
5110,4232.415512561798
5111,4233.291514635086
5112,4234.15651679039
5113,4235.034518957138
5114,4235.910521268845
5115,4236.770523309708
5116,4237.634525537491
5117,4238.525527715683
5118,4239.427530050278
5119,4240.269531965256
5120,4241.107534170151
5121,4241.959536314011
5122,4242.803538322449
5123,4243.618540287018
5124,4244.423542261124
5125,4245.223544359207
5126,4246.036546468735
5127,4246.860548496246
5128,4247.672550439835
5129,4248.500552415848
5130,4249.335554599762
5131,4250.184556722641
5132,4251.012558698654
5133,4251.845560789108
5134,4252.686562776566
5135,4253.5295650959015
5136,4254.372567176819
5137,4255.197569131851
5138,4256.023571252823
5139,4256.853573322296
5140,4257.68657541275
5141,4258.544577360153
5142,4259.440579652786
5143,4260.30758190155
5144,4261.144583940506
5145,4261.981585979462
5146,4262.820588111877
5147,4263.648590087891
5148,4264.476592063904
5149,4265.314594268799
5150,4266.13659620285
5151,4266.970598459244
5152,4267.800600528717
5153,4268.650602579117
5154,4269.507604598999
5155,4270.356606721878
5156,4271.1836087703705
5157,4272.005610942841
5158,4272.868613004684
5159,4273.743615150452
5160,4274.634617328644
5161,4275.512619495392
5162,4276.3566217422485
5163,4277.188623666763
