,ECG_peaks
0,0.0
1,0.7579977512359619
2,1.5139954090118408
3,2.2919931411743164
4,3.0259909629821777
5,3.7839887142181396
6,4.560986280441284
7,5.2979841232299805
8,6.028981924057007
9,6.75797963142395
10,7.4929773807525635
11,8.212975263595581
12,8.93397307395935
13,9.649971008300781
14,10.37696886062622
15,11.092966556549072
16,11.805964469909668
17,12.517962455749512
18,13.26196002960205
19,14.022957801818848
20,14.75195574760437
21,15.492953300476074
22,16.25295114517212
23,17.031948804855347
24,17.79094648361206
25,18.52994418144226
26,19.259942054748535
27,19.98893976211548
28,20.72393774986267
29,21.46793532371521
30,22.190933227539062
31,22.909931182861328
32,23.629928827285767
33,24.348926782608032
34,25.072924613952637
35,25.79092240333557
36,26.512920141220093
37,27.25091791152954
38,28.02491569519043
39,28.76391339302063
40,29.540911197662354
41,30.329908847808838
42,31.126906394958496
43,31.88590407371521
44,32.66090178489685
45,33.449899435043335
46,34.253896951675415
47,35.02589464187622
48,35.81089234352112
49,36.61788988113403
50,37.422887325286865
51,38.19988512992859
52,38.97088265419006
53,39.74488043785095
54,40.50187826156616
55,41.25587582588196
56,41.99787354469299
57,42.75387144088745
58,43.51086902618408
59,44.25986695289612
60,45.01286458969116
61,45.80486226081848
62,46.55885982513428
63,47.314857721328735
64,48.06885528564453
65,48.82585310935974
66,49.56385087966919
67,50.30684852600098
68,51.05384635925293
69,51.78884410858154
70,52.53184199333191
71,53.29483962059021
72,54.078837394714355
73,54.83783507347107
74,55.61983275413513
75,56.42083024978638
76,57.199827909469604
77,57.95482563972473
78,58.70282340049744
79,59.44282126426697
80,60.1758189201355
81,60.89681673049927
82,61.6128146648407
83,62.337812423706055
84,63.0758101940155
85,63.80680799484253
86,64.53380584716797
87,65.26280355453491
88,66.00980138778687
89,66.74179911613464
90,67.47479701042175
91,68.20979475975037
92,68.94279265403748
93,69.664790391922
94,70.38578820228577
95,71.11478590965271
96,71.84778380393982
97,72.58778166770935
98,73.31177949905396
99,74.03677725791931
100,74.7537751197815
101,75.46677303314209
102,76.16077089309692
103,76.85576868057251
104,77.54376673698425
105,78.23276448249817
106,78.92676258087158
107,79.61276054382324
108,80.30275845527649
109,80.9917562007904
110,81.6897542476654
111,82.39275217056274
112,83.09675002098083
113,83.80374789237976
114,84.51074576377869
115,85.2367434501648
116,85.94974136352539
117,86.65773916244507
118,87.36373710632324
119,88.07673501968384
120,88.77473282814026
121,89.47573065757751
122,90.17172861099243
123,90.85872650146484
124,91.52972459793091
125,92.2007224559784
126,92.87272047996521
127,93.53671860694885
128,94.20071649551392
129,94.87371444702148
130,95.55171251296997
131,96.23171043395996
132,96.95170831680298
133,97.66170620918274
134,98.40770387649536
135,99.13570165634155
136,99.86769938468933
137,100.58569741249084
138,101.26869535446167
139,101.93769335746765
140,102.59869122505188
141,103.25268936157227
142,103.89068746566772
143,104.52768540382385
144,105.15668368339539
145,105.78868174552917
146,106.41367983818054
147,107.04367780685425
148,107.67367601394653
149,108.30467414855957
150,108.93767213821411
151,109.56467032432556
152,110.18566846847534
153,110.80766654014587
154,111.42266464233398
155,112.03466296195984
156,112.64766097068787
157,113.24965929985046
158,113.84465742111206
159,114.43965554237366
160,115.02965378761292
161,115.61465215682983
162,116.1936502456665
163,116.77064871788025
164,117.34464693069458
165,117.91364526748657
166,118.48464345932007
167,119.05264186859131
168,119.62064003944397
169,120.18563842773438
170,120.75263667106628
171,121.32963490486145
172,121.89163327217102
173,122.46263146400452
174,123.02662968635559
175,123.58562803268433
176,124.14462637901306
177,124.69962477684021
178,125.25562310218811
179,125.8136215209961
180,126.37261962890625
181,126.93261814117432
182,127.49361634254456
183,128.05761456489563
184,128.62561297416687
185,129.19161128997803
186,129.75860953330994
187,130.32160782814026
188,130.88560605049133
189,131.45060443878174
190,132.02360272407532
191,132.5966010093689
192,133.17359924316406
193,133.75859761238098
194,134.35259580612183
195,134.94759392738342
196,135.55259203910828
197,136.16959023475647
198,136.7855885028839
199,137.41158652305603
200,138.04258465766907
201,138.68358278274536
202,139.3205807209015
203,139.96957874298096
204,140.6205768585205
205,141.26957488059998
206,141.90757298469543
207,142.54657101631165
208,143.1825692653656
209,143.8165671825409
210,144.47256517410278
211,145.13456320762634
212,145.81756114959717
213,146.4965591430664
214,147.15455722808838
215,147.81855511665344
216,148.50355315208435
217,149.2045509815216
218,149.88754892349243
219,150.57554697990417
220,151.258544921875
221,151.92954277992249
222,152.6125407218933
223,153.320538520813
224,154.0275363922119
225,154.73153448104858
226,155.440532207489
227,156.1685299873352
228,156.90652775764465
229,157.64652562141418
230,158.4015233516693
231,159.14352107048035
232,159.8865189552307
233,160.64451670646667
234,161.41751432418823
235,162.1975119113922
236,162.95050954818726
237,163.7015073299408
238,164.45650506019592
239,165.18750286102295
240,165.93150067329407
241,166.66349840164185
242,167.3824963569641
243,168.10549426078796
244,168.836492061615
245,169.55648970603943
246,170.2994875907898
247,171.08148527145386
248,171.87448287010193
249,172.63748049736023
250,173.4194781780243
251,174.20147585868835
252,175.0024733543396
253,175.8114709854126
254,176.67746829986572
255,177.53546571731567
256,178.35046339035034
257,179.23146057128906
258,180.056458234787
259,180.88445568084717
260,181.78745293617249
261,182.62045049667358
262,183.44944787025452
263,184.30044531822205
264,185.09444308280945
265,185.89244055747986
266,186.6824381351471
267,187.46243596076965
268,188.2594335079193
269,189.03243112564087
270,189.7964289188385
271,190.56642651557922
272,191.31442427635193
273,192.06042194366455
274,192.82241988182068
275,193.57141757011414
276,194.3184151649475
277,195.07141304016113
278,195.83741068840027
279,196.5834083557129
280,197.32440614700317
281,198.06940388679504
282,198.8014018535614
283,199.54839944839478
284,200.31839728355408
285,201.07439494132996
286,201.82439255714417
287,202.56839036941528
288,203.30838823318481
289,204.06338596343994
290,204.85038352012634
291,205.60138130187988
292,206.35237908363342
293,207.08737683296204
294,207.80337476730347
295,208.5123724937439
296,209.22637033462524
297,209.93736815452576
298,210.65436601638794
299,211.37036395072937
300,212.1013617515564
301,212.825359582901
302,213.55735731124878
303,214.31935501098633
304,215.04535293579102
305,215.7773506641388
306,216.52234840393066
307,217.26334619522095
308,217.99434399604797
309,218.71534180641174
310,219.44833970069885
311,220.17633748054504
312,220.92433524131775
313,221.6883327960968
314,222.45233058929443
315,223.19032835960388
316,223.92832612991333
317,224.6823239326477
318,225.423321723938
319,226.1623194217682
320,226.89231729507446
321,227.61131501197815
322,228.33131289482117
323,229.07931065559387
324,229.81430840492249
325,230.54830622673035
326,231.31730389595032
327,232.054301738739
328,232.78329944610596
329,233.50529742240906
330,234.2382950782776
331,234.96929287910461
332,235.69129085540771
333,236.40928864479065
334,237.11628651618958
335,237.81828427314758
336,238.51928234100342
337,239.2402801513672
338,239.96827793121338
339,240.71127557754517
340,241.44927334785461
341,242.17327117919922
342,242.90626907348633
343,243.63726687431335
344,244.36126470565796
345,245.09626245498657
346,245.84626030921936
347,246.5842580795288
348,247.32025575637817
349,248.05025362968445
350,248.7862513065338
351,249.52424907684326
352,250.26724696159363
353,251.01024460792542
354,251.74824237823486
355,252.51324009895325
356,253.2382378578186
357,253.97423577308655
358,254.69123363494873
359,255.42423129081726
360,256.1952290534973
361,256.9642267227173
362,257.7152245044708
363,258.45022225379944
364,259.18322014808655
365,259.9232177734375
366,260.6492156982422
367,261.3762135505676
368,262.10221123695374
369,262.83120918273926
370,263.60020685195923
371,264.3582046031952
372,265.09820222854614
373,265.82920002937317
374,266.57919788360596
375,267.321195602417
376,268.0651934146881
377,268.8171911239624
378,269.5891888141632
379,270.34218645095825
380,271.063184261322
381,271.7851822376251
382,272.5391798019409
383,273.30317759513855
384,274.04417538642883
385,274.7801730632782
386,275.50117087364197
387,276.21216893196106
388,276.94416666030884
389,277.69016432762146
390,278.4321620464325
391,279.1761598587036
392,279.91615772247314
393,280.64615535736084
394,281.3651533126831
395,282.07215118408203
396,282.79614901542664
397,283.53314685821533
398,284.2711446285248
399,285.00314235687256
400,285.7261402606964
401,286.4541380405426
402,287.1911358833313
403,287.921133518219
404,288.630131483078
405,289.34012937545776
406,290.0451271533966
407,290.7581250667572
408,291.48312282562256
409,292.19612073898315
410,292.9291183948517
411,293.6451163291931
412,294.3601140975952
413,295.08911204338074
414,295.8251097202301
415,296.5461075305939
416,297.25010561943054
417,297.96110343933105
418,298.66810131073
419,299.3660991191864
420,300.08509707450867
421,300.80609488487244
422,301.51309275627136
423,302.2220904827118
424,302.9460883140564
425,303.68008613586426
426,304.4030840396881
427,305.137081861496
428,305.88407945632935
429,306.6070773601532
430,307.3310751914978
431,308.0770728588104
432,308.81907057762146
433,309.53606843948364
434,310.250066280365
435,310.9660642147064
436,311.70606207847595
437,312.43405985832214
438,313.14905762672424
439,313.8680555820465
440,314.5980532169342
441,315.31405115127563
442,316.03004908561707
443,316.73604679107666
444,317.4440448284149
445,318.1460425853729
446,318.87504053115845
447,319.60303831100464
448,320.32703614234924
449,321.0320339202881
450,321.74003171920776
451,322.4600296020508
452,323.16602754592896
453,323.87002539634705
454,324.5840232372284
455,325.29602122306824
456,325.9920189380646
457,326.6820168495178
458,327.3730149269104
459,328.07801270484924
460,328.78001070022583
461,329.4750084877014
462,330.16900634765625
463,330.8700044155121
464,331.5640022754669
465,332.2590000629425
466,332.9799978733063
467,333.7069957256317
468,334.41399359703064
469,335.1329915523529
470,335.84298944473267
471,336.54298734664917
472,337.258985042572
473,337.9849829673767
474,338.71398067474365
475,339.4479784965515
476,340.19397616386414
477,340.91397404670715
478,341.61597204208374
479,342.3079698085785
480,342.99896788597107
481,343.68996572494507
482,344.38296365737915
483,345.0899615287781
484,345.8229594230652
485,346.5359570980072
486,347.23495507240295
487,347.916953086853
488,348.59795093536377
489,349.2729489803314
490,349.9309470653534
491,350.57894492149353
492,351.23794293403625
493,351.90294098854065
494,352.5849390029907
495,353.27893686294556
496,353.98993468284607
497,354.6929326057434
498,355.39593052864075
499,356.0929284095764
500,356.8029263019562
501,357.50392413139343
502,358.1939220428467
503,358.8769199848175
504,359.57191801071167
505,360.2679159641266
506,360.95391368865967
507,361.64091181755066
508,362.3519096374512
509,363.0789074897766
510,363.8089051246643
511,364.54690289497375
512,365.28790068626404
513,366.00989866256714
514,366.7418963909149
515,367.47689414024353
516,368.1788921356201
517,368.8548901081085
518,369.51588797569275
519,370.16588616371155
520,370.81088423728943
521,371.4488821029663
522,372.0788803100586
523,372.70587849617004
524,373.33387660980225
525,373.9468746185303
526,374.5668728351593
527,375.1708710193634
528,375.7828691005707
529,376.3998672962189
530,377.0218653678894
531,377.64886355400085
532,378.27686166763306
533,378.90685987472534
534,379.5428578853607
535,380.1968557834625
536,380.8618538379669
537,381.5308518409729
538,382.2158498764038
539,382.9348475933075
540,383.6278455257416
541,384.32984352111816
542,385.03784132003784
543,385.7568392753601
544,386.4628369808197
545,387.1628348827362
546,387.85283279418945
547,388.5468306541443
548,389.2388286590576
549,389.9238266944885
550,390.60582447052
551,391.29382252693176
552,391.98682045936584
553,392.674818277359
554,393.3508162498474
555,394.0328142642975
556,394.7088122367859
557,395.3758101463318
558,396.05080819129944
559,396.7388060092926
560,397.4218039512634
561,398.1078019142151
562,398.7907998561859
563,399.48079776763916
564,400.17379570007324
565,400.8637936115265
566,401.5557916164398
567,402.28478932380676
568,402.97778725624084
569,403.68878531455994
570,404.3987829685211
571,405.1247808933258
572,405.8467786312103
573,406.5677764415741
574,407.2897744178772
575,408.0097723007202
576,408.71877002716064
577,409.42276787757874
578,410.1547658443451
579,410.8657636642456
580,411.5697615146637
581,412.26675939559937
582,412.9657573699951
583,413.6567552089691
584,414.3477530479431
585,415.05475091934204
586,415.76174879074097
587,416.47674679756165
588,417.1927444934845
589,417.9077425003052
590,418.61774015426636
591,419.32673811912537
592,420.03973603248596
593,420.7497339248657
594,421.45673179626465
595,422.1487295627594
596,422.8447275161743
597,423.52772545814514
598,424.2097234725952
599,424.8857214450836
600,425.5737192630768
601,426.2617173194885
602,426.96371507644653
603,427.6677129268646
604,428.3737108707428
605,429.090708732605
606,429.79470658302307
607,430.501704454422
608,431.18970251083374
609,431.8757004737854
610,432.54869842529297
611,433.23969626426697
612,433.948694229126
613,434.6986918449402
614,435.4506895542145
615,436.21968722343445
616,436.9756851196289
617,437.7226827144623
618,438.51168036460876
619,439.31167793273926
620,440.12867546081543
621,440.9286730289459
622,441.75567054748535
623,442.62366795539856
624,443.49566531181335
625,444.3226628303528
626,445.13566040992737
627,446.0066578388214
628,446.87965512275696
629,447.7156527042389
630,448.58465003967285
631,449.39564776420593
632,450.170645236969
633,450.9586429595947
634,451.7736403942108
635,452.56863808631897
636,453.3416357040405
637,454.16663336753845
638,454.999630689621
639,455.7986283302307
640,456.61762595176697
641,457.4796233177185
642,458.390620470047
643,459.2636179924011
644,460.05961561203003
645,460.8916130065918
646,461.69761061668396
647,462.49960827827454
648,463.3536057472229
649,464.1736032962799
650,464.97460079193115
651,465.7845983505249
652,466.65159583091736
653,467.45759320259094
654,468.2465908527374
655,469.08658838272095
656,469.90858602523804
657,470.68658351898193
658,471.4595811367035
659,472.2685787677765
660,473.1015763282776
661,473.90357398986816
662,474.71157145500183
663,475.5765688419342
664,476.3965663909912
665,477.2045638561249
666,478.0005614757538
667,478.84155893325806
668,479.6815564632416
669,480.4775540828705
670,481.25555181503296
671,481.99654960632324
672,482.7235474586487
673,483.51654505729675
674,484.3345425128937
675,485.17154002189636
676,486.0055375099182
677,486.8685348033905
678,487.7125322818756
679,488.60352969169617
680,489.4985270500183
681,490.35652446746826
682,491.22152185440063
683,492.0825192928314
684,492.8975167274475
685,493.6815142631531
686,494.4735119342804
687,495.27250957489014
688,496.10350704193115
689,496.92750453948975
690,497.77350211143494
691,498.6364994049072
692,499.4714970588684
693,500.27649450302124
694,501.137491941452
695,502.0394892692566
696,502.89348673820496
697,503.775484085083
698,504.6514813899994
699,505.4904787540436
700,506.3504762649536
701,507.2444734573364
702,508.08447098731995
703,508.94546842575073
704,509.8304657936096
705,510.69646310806274
706,511.53846073150635
707,512.373458147049
708,513.1914556026459
709,514.0064532756805
710,514.8004508018494
711,515.637448310852
712,516.495445728302
713,517.2994432449341
714,518.1104409694672
715,518.9304385185242
716,519.7194359302521
717,520.5264337062836
718,521.3924310207367
719,522.2414283752441
720,523.0624258518219
721,523.8794236183167
722,524.7144210338593
723,525.5404186248779
724,526.34441614151
725,527.1544137001038
726,527.9974110126495
727,528.7904086112976
728,529.5754063129425
729,530.3714039325714
730,531.2004015445709
731,531.9853990077972
732,532.7663967609406
733,533.5743942260742
734,534.3793919086456
735,535.1683895587921
736,535.9553871154785
737,536.7913846969604
738,537.6053822040558
739,538.3803799152374
740,539.1343777179718
741,539.8853752613068
742,540.6033732891083
743,541.3143711090088
744,542.0173690319061
745,542.7433667182922
746,543.4963643550873
747,544.2513620853424
748,545.0083599090576
749,545.7723577022552
750,546.5503551959991
751,547.3783528804779
752,548.2113502025604
753,549.0413477420807
754,549.8373453617096
755,550.6193430423737
756,551.4153406620026
757,552.2253382205963
758,553.0093357563019
759,553.7633335590363
760,554.5233314037323
761,555.2833290100098
762,556.0393266677856
763,556.7833244800568
764,557.5283222198486
765,558.271320104599
766,559.0363178253174
767,559.8003153800964
768,560.5573132038116
769,561.3253107070923
770,562.09130859375
771,562.8483061790466
772,563.6043040752411
773,564.3643016815186
774,565.1472992897034
775,565.9252970218658
776,566.7192945480347
777,567.511292219162
778,568.3032898902893
779,569.0992875099182
780,569.871285200119
781,570.640282869339
782,571.409280538559
783,572.1892781257629
784,572.9572758674622
785,573.713273525238
786,574.471271276474
787,575.2352690696716
788,576.0122666358948
789,576.7732644081116
790,577.5192620754242
791,578.3072597980499
792,579.089257478714
793,579.8502550125122
794,580.6012527942657
795,581.3352506160736
796,582.1042482852936
797,582.8722460269928
798,583.6392436027527
799,584.3852415084839
800,585.1352391242981
801,585.8852369785309
802,586.6232347488403
803,587.3652324676514
804,588.1142301559448
805,588.8552279472351
806,589.64022564888
807,590.4452230930328
808,591.3012206554413
809,592.1082181930542
810,592.891215801239
811,593.6792135238647
812,594.4902110099792
813,595.2692086696625
814,596.0362062454224
815,596.8102040290833
816,597.6342015266418
817,598.4231991767883
818,599.1921968460083
819,599.9521946907043
820,600.749192237854
821,601.502189874649
822,602.2481877803802
823,603.0051853656769
824,603.8141829967499
825,604.6301805973053
826,605.4251780509949
827,606.236175775528
828,607.0461733341217
829,607.8381707668304
830,608.6151685714722
831,609.449166059494
832,610.2481637001038
833,611.0351612567902
834,611.8051588535309
835,612.5951564311981
836,613.3781542778015
837,614.1621518135071
838,614.9231495857239
839,615.6831471920013
840,616.431144952774
841,617.1831426620483
842,617.9271404743195
843,618.6861381530762
844,619.4661357402802
845,620.2351336479187
846,620.987131357193
847,621.7681288719177
848,622.536126613617
849,623.3011243343353
850,624.0621221065521
851,624.8301196098328
852,625.6061174869537
853,626.3821151256561
854,627.1471128463745
855,627.9011104106903
856,628.6731081008911
857,629.4541058540344
858,630.2101035118103
859,630.9611012935638
860,631.7080991268158
861,632.4750967025757
862,633.2300944328308
863,633.9850921630859
864,634.7420899868011
865,635.4990875720978
866,636.2520854473114
867,637.0170829296112
868,637.807080745697
869,638.5630784034729
870,639.3240761756897
871,640.1260735988617
872,640.9060714244843
873,641.6750690937042
874,642.4490666389465
875,643.2550642490387
876,644.0300619602203
877,644.8080596923828
878,645.6090571880341
879,646.4140548706055
880,647.1950523853302
881,647.9720501899719
882,648.7750475406647
883,649.5940451622009
884,650.3960428237915
885,651.1890404224396
886,651.9730379581451
887,652.7770357131958
888,653.6000330448151
889,654.3810307979584
890,655.1570284366608
891,655.9390261173248
892,656.716023683548
893,657.4830214977264
894,658.2410192489624
895,659.0220167636871
896,659.8370144367218
897,660.627012014389
898,661.4550094604492
899,662.3020069599152
900,663.1000044345856
901,663.889002084732
902,664.6809997558594
903,665.4799973964691
904,666.2599949836731
905,667.0279927253723
906,667.797990322113
907,668.5769879817963
908,669.3329858779907
909,670.084983587265
910,670.8319811820984
911,671.5929789543152
912,672.3409767150879
913,673.084974527359
914,673.8309721946716
915,674.5809700489044
916,675.3259677886963
917,676.0529656410217
918,676.7789633274078
919,677.5109612941742
920,678.2529590129852
921,678.9829566478729
922,679.71595454216
923,680.4719521999359
924,681.2469499111176
925,682.0009477138519
926,682.7759454250336
927,683.5719430446625
928,684.3289406299591
929,685.0819385051727
930,685.8059363365173
931,686.5079340934753
932,687.1979320049286
933,687.9109299182892
934,688.620927810669
935,689.3319256305695
936,690.0399234294891
937,690.7719211578369
938,691.5129189491272
939,692.251916885376
940,693.0249145030975
941,693.8209121227264
942,694.6409096717834
943,695.4319071769714
944,696.2269048690796
945,697.042902469635
946,697.8618998527527
947,698.6928973197937
948,699.4968950748444
949,700.3028926849365
950,701.113890171051
951,701.9378876686096
952,702.7838852405548
953,703.5918827056885
954,704.391880273819
955,705.195877790451
956,706.0298752784729
957,706.8648729324341
958,707.6578705310822
959,708.462867975235
960,709.282865524292
961,710.0978631973267
962,710.8938608169556
963,711.6738584041595
964,712.451856136322
965,713.2478535175323
966,714.0488512516022
967,714.8388488292694
968,715.6478464603424
969,716.4408440589905
970,717.2708415985107
971,718.1378388404846
972,718.9728364944458
973,719.7858340740204
974,720.591831445694
975,721.4168291091919
976,722.204826593399
977,722.9848244190216
978,723.7668220996857
979,724.5688195228577
980,725.3508172035217
981,726.1338148117065
982,726.9038126468658
983,727.7018101215363
984,728.5018076896667
985,729.2838053703308
986,730.0678029060364
987,730.8518006801605
988,731.6607983112335
989,732.471795797348
990,733.2567934989929
991,734.0667910575867
992,734.8987884521484
993,735.7437858581543
994,736.5637834072113
995,737.3687810897827
996,738.1817786693573
997,739.0137760639191
998,739.8347735404968
999,740.6167712211609
1000,741.3907690048218
1001,742.1527667045593
1002,742.9427642822266
1003,743.7167618274689
1004,744.4797596931458
1005,745.2527573108673
1006,746.0177550315857
1007,746.8077526092529
1008,747.5967502593994
1009,748.3567478656769
1010,749.1267457008362
1011,749.9547431468964
1012,750.7617406845093
1013,751.5737383365631
1014,752.4037358760834
1015,753.2027335166931
1016,753.9797310829163
1017,754.7467286586761
1018,755.5237264633179
1019,756.2777240276337
1020,757.0287218093872
1021,757.7687196731567
1022,758.5067174434662
1023,759.2617151737213
1024,760.0147128105164
1025,760.7867105007172
1026,761.5737082958221
1027,762.3477058410645
1028,763.07670378685
1029,763.7937014102936
1030,764.5616991519928
1031,765.3626968860626
1032,766.1796944141388
1033,766.9536919593811
1034,767.6916897296906
1035,768.4306876659393
1036,769.2246851921082
1037,770.0416827201843
1038,770.8616802692413
1039,771.6396780014038
1040,772.3956756591797
1041,773.1966731548309
1042,774.0206706523895
1043,774.8326683044434
1044,775.6276659965515
1045,776.3936636447906
1046,777.2086610794067
1047,778.038658618927
1048,778.8436563014984
1049,779.6196539402008
1050,780.3826515674591
1051,781.1886491775513
1052,782.0106468200684
1053,782.8056442737579
1054,783.5846419334412
1055,784.3356397151947
1056,785.1406373977661
1057,785.9406349658966
1058,786.7066326141357
1059,787.4616303443909
1060,788.2046279907227
1061,788.985625743866
1062,789.7756233215332
1063,790.5676209926605
1064,791.3326187133789
1065,792.0796163082123
1066,792.8806140422821
1067,793.6826114654541
1068,794.4736092090607
1069,795.247606754303
1070,796.0016045570374
1071,796.7916021347046
1072,797.5875997543335
1073,798.3705973625183
1074,799.1485950946808
1075,799.9095928668976
1076,800.6985905170441
1077,801.5205879211426
1078,802.3355855941772
1079,803.1335830688477
1080,803.9015808105469
1081,804.7005784511566
1082,805.5135760307312
1083,806.3105735778809
1084,807.087571144104
1085,807.8305690288544
1086,808.6125667095184
1087,809.3935642242432
1088,810.1705620288849
1089,810.9495596885681
1090,811.7015573978424
1091,812.4885549545288
1092,813.2825524806976
1093,814.0525503158569
1094,814.8245480060577
1095,815.5735456943512
1096,816.3335433006287
1097,817.1345410346985
1098,817.9085385799408
1099,818.6745364665985
1100,819.4215340614319
1101,820.1785318851471
1102,820.9575295448303
1103,821.7235271930695
1104,822.485524892807
1105,823.2345225811005
1106,823.9645204544067
1107,824.7295181751251
1108,825.474515914917
1109,826.2295136451721
1110,826.985511302948
1111,827.727509021759
1112,828.5015068054199
1113,829.2735044956207
1114,830.0545020103455
1115,830.8264997005463
1116,831.5794975757599
1117,832.3514952659607
1118,833.125492811203
1119,833.8914906978607
1120,834.6454882621765
1121,835.3824861049652
1122,836.125483751297
1123,836.896481513977
1124,837.6594791412354
1125,838.4114770889282
1126,839.1634747982025
1127,839.9274723529816
1128,840.7014701366425
1129,841.5074677467346
1130,842.283465385437
1131,843.0444629192352
1132,843.8154606819153
1133,844.5964584350586
1134,845.3704559803009
1135,846.130453824997
1136,846.8794515132904
1137,847.6584491729736
1138,848.4304468631744
1139,849.1974444389343
1140,849.9524421691895
1141,850.7384397983551
1142,851.5134375095367
1143,852.2514352798462
1144,852.9884331226349
1145,853.714430809021
1146,854.4714286327362
1147,855.2074265480042
1148,855.9474241733551
1149,856.692421913147
1150,857.4654195308685
1151,858.2404172420502
1152,858.9974150657654
1153,859.7594127655029
1154,860.512410402298
1155,861.2894082069397
1156,862.0704057216644
1157,862.8274035453796
1158,863.5884013175964
1159,864.3373990058899
1160,865.1123967170715
1161,865.8713943958282
1162,866.6263921260834
1163,867.3843898773193
1164,868.1613874435425
1165,868.9363851547241
1166,869.6843829154968
1167,870.4383807182312
1168,871.2153782844543
1169,871.990375995636
1170,872.7753734588623
1171,873.5403711795807
1172,874.2913689613342
1173,875.0473666191101
1174,875.8173644542694
1175,876.5893621444702
1176,877.3523597717285
1177,878.1053574085236
1178,878.8853552341461
1179,879.6693527698517
1180,880.4313504695892
1181,881.208348274231
1182,881.9763457775116
1183,882.7583434581757
1184,883.5273411273956
1185,884.2913389205933
1186,885.0353367328644
1187,885.8063342571259
1188,886.5893321037292
1189,887.3533296585083
1190,888.1163272857666
1191,888.89932513237
1192,889.6803226470947
1193,890.4583203792572
1194,891.2293181419373
1195,891.9903156757355
1196,892.7853133678436
1197,893.5693109035492
1198,894.308308839798
1199,895.0543065071106
1200,895.797304391861
1201,896.5573019981384
1202,897.3012998104095
1203,898.0532975196838
1204,898.797295331955
1205,899.5472929477692
1206,900.3282907009125
1207,901.0882883071899
1208,901.8502860069275
1209,902.6102838516235
1210,903.3902814388275
1211,904.1692790985107
1212,904.9232769012451
1213,905.6832745075226
1214,906.4412722587585
1215,907.2152700424194
1216,907.9902675151825
1217,908.7422652244568
1218,909.5002629756927
1219,910.2512607574463
1220,911.0242583751678
1221,911.8032560348511
1222,912.5602538585663
1223,913.319251537323
1224,914.099249124527
1225,914.8742468357086
1226,915.6292445659637
1227,916.3842422962189
1228,917.1462399959564
1229,917.9212377071381
1230,918.6672353744507
1231,919.410233259201
1232,920.1582310199738
1233,920.9182286262512
1234,921.6592264175415
1235,922.399224281311
1236,923.1262221336365
1237,923.8692197799683
1238,924.6242175102234
1239,925.3542153835297
1240,926.0922131538391
1241,926.8282108306885
1242,927.5842087268829
1243,928.3272063732147
1244,929.0742042064667
1245,929.7982020378113
1246,930.5331997871399
1247,931.2891974449158
1248,932.017195224762
1249,932.7551929950714
1250,933.4841909408569
1251,934.2431886196136
1252,934.9881863594055
1253,935.726184129715
1254,936.4631819725037
1255,937.2181797027588
1256,937.9631774425507
1257,938.6921751499176
1258,939.430172920227
1259,940.1801707744598
1260,940.9201683998108
1261,941.6541662216187
1262,942.4031641483307
1263,943.1631617546082
1264,943.9251594543457
1265,944.6891572475433
1266,945.4531548023224
1267,946.2131526470184
1268,946.9901502132416
1269,947.7451479434967
1270,948.5011456012726
1271,949.2591433525085
1272,950.026141166687
1273,950.7721388339996
1274,951.51513671875
1275,952.266134262085
1276,953.0321321487427
1277,953.768129825592
1278,954.5101275444031
1279,955.2531254291534
1280,955.9921231269836
1281,956.717120885849
1282,957.4491188526154
1283,958.1711165904999
1284,958.9161143302917
1285,959.6331121921539
1286,960.3561100959778
1287,961.0711078643799
1288,961.8081057071686
1289,962.5221035480499
1290,963.2431013584137
1291,963.9700992107391
1292,964.7110970020294
1293,965.4290947914124
1294,966.164092540741
1295,966.8930902481079
1296,967.6460881233215
1297,968.4030857086182
1298,969.1540834903717
1299,969.9070813655853
1300,970.6820788383484
1301,971.4530766010284
1302,972.204074382782
1303,972.975072145462
1304,973.7430696487427
1305,974.5270674228668
1306,975.2910649776459
1307,976.064062833786
1308,976.8310604095459
1309,977.6090581417084
1310,978.3580558300018
1311,979.1190536022186
1312,979.8990511894226
1313,980.6810488700867
1314,981.4540464878082
1315,982.2390441894531
1316,983.0340418815613
1317,983.8200395107269
1318,984.5980370044708
1319,985.3650348186493
1320,986.1510324478149
1321,986.9270300865173
1322,987.6910276412964
1323,988.4520254135132
1324,989.235023021698
1325,989.9870207309723
1326,990.7420184612274
1327,991.482016324997
1328,992.2490141391754
1329,992.9890117645264
1330,993.7310094833374
1331,994.4650073051453
1332,995.2270050048828
1333,995.9580028057098
1334,996.7080006599426
1335,997.4629983901978
1336,998.2079961299896
1337,998.9549939632416
1338,999.6979916095734
1339,1000.4399893283844
1340,1001.1969871520996
1341,1001.9389848709106
1342,1002.6809825897217
1343,1003.4449803829193
1344,1004.1949779987335
1345,1004.9679758548737
1346,1005.7339735031128
1347,1006.545970916748
1348,1007.3529686927795
1349,1008.1699662208557
1350,1008.9749636650085
1351,1009.7669613361359
1352,1010.5389590263367
1353,1011.3009567260742
1354,1012.0749542713165
1355,1012.8659520149231
1356,1013.672949552536
1357,1014.4939470291138
1358,1015.2939445972443
1359,1016.0949423313141
1360,1016.9059398174286
1361,1017.6969375610352
1362,1018.4979350566864
1363,1019.321932554245
1364,1020.130930185318
1365,1020.9569275379181
1366,1021.8179249763489
1367,1022.6469225883484
1368,1023.4859199523926
1369,1024.3139176368713
1370,1025.132915019989
1371,1025.9839124679565
1372,1026.8529098033905
1373,1027.7029073238373
1374,1028.5389049053192
1375,1029.3919022083282
1376,1030.2198996543884
1377,1031.059897184372
1378,1031.870894908905
1379,1032.6658923625946
1380,1033.4568901062012
1381,1034.2468876838684
1382,1035.0448851585388
1383,1035.8488829135895
1384,1036.64688038826
1385,1037.4338779449463
1386,1038.2168757915497
1387,1038.9968733787537
1388,1039.7988710403442
1389,1040.581868648529
1390,1041.3518662452698
1391,1042.1158640384674
1392,1042.8698616027832
1393,1043.6408593654633
1394,1044.4118571281433
1395,1045.1718547344208
1396,1045.93785238266
1397,1046.735850095749
1398,1047.5208477973938
1399,1048.2738454341888
1400,1049.0198431015015
1401,1049.759840965271
1402,1050.4968388080597
1403,1051.2498364448547
1404,1052.0338342189789
1405,1052.7898318767548
1406,1053.5658295154572
1407,1054.348827123642
1408,1055.1368248462677
1409,1055.9458222389221
1410,1056.7678198814392
1411,1057.5688173770905
1412,1058.4148149490356
1413,1059.2518124580383
1414,1060.0698099136353
1415,1060.8648076057434
1416,1061.6238052845001
1417,1062.3508031368256
1418,1063.0878007411957
1419,1063.8397986888885
1420,1064.577796459198
1421,1065.319794178009
1422,1066.0627918243408
1423,1066.8137896060944
1424,1067.586787223816
1425,1068.3647849559784
1426,1069.126782655716
1427,1069.8797805309296
1428,1070.6247782707214
1429,1071.3747758865356
1430,1072.1597735881805
1431,1072.9497711658478
1432,1073.7657687664032
1433,1074.621766090393
1434,1075.4757635593414
1435,1076.3127610683441
1436,1077.1297585964203
1437,1077.9387562274933
1438,1078.759753704071
1439,1079.5977511405945
1440,1080.4477486610413
1441,1081.308746099472
1442,1082.1827433109283
1443,1083.0327408313751
1444,1083.8457384109497
1445,1084.6277360916138
1446,1085.4207336902618
1447,1086.2207312583923
1448,1087.0547287464142
1449,1087.9197261333466
1450,1088.7807235717773
1451,1089.6497209072113
1452,1090.5297181606293
1453,1091.4127156734467
1454,1092.286712884903
1455,1093.119710445404
1456,1093.9337079524994
1457,1094.73770570755
1458,1095.5487031936646
1459,1096.388700723648
1460,1097.230698108673
1461,1098.1016955375671
1462,1098.9916927814484
1463,1099.879690170288
1464,1100.7296876907349
1465,1101.5506851673126
1466,1102.366682767868
1467,1103.20068025589
1468,1104.075677394867
1469,1104.962674856186
1470,1105.8546721935272
1471,1106.7086696624756
1472,1107.5266671180725
1473,1108.3296647071838
1474,1109.1316623687744
1475,1109.9606597423553
1476,1110.7896573543549
1477,1111.6376547813416
1478,1112.4946522712708
1479,1113.3606495857239
1480,1114.2416470050812
1481,1115.0916442871094
1482,1115.9086418151855
1483,1116.7006394863129
1484,1117.4896371364594
1485,1118.297634601593
1486,1119.1386322975159
1487,1119.9896295070648
1488,1120.8286271095276
1489,1121.6676244735718
1490,1122.5166220664978
1491,1123.355619430542
1492,1124.18061709404
1493,1124.9876146316528
1494,1125.8116121292114
1495,1126.6326096057892
1496,1127.4696071147919
1497,1128.2946045398712
1498,1129.146602153778
1499,1130.0085995197296
1500,1130.8385970592499
1501,1131.6465945243835
1502,1132.4255921840668
1503,1133.215589761734
1504,1134.0575873851776
1505,1134.893584728241
1506,1135.7125823497772
1507,1136.5395798683167
1508,1137.366577386856
1509,1138.1915748119354
1510,1138.9925725460052
1511,1139.789570093155
1512,1140.5705676078796
1513,1141.3525652885437
1514,1142.1775629520416
1515,1142.9945604801178
1516,1143.822557926178
1517,1144.6615552902222
1518,1145.4855527877808
1519,1146.3345503807068
1520,1147.1305480003357
1521,1147.915545463562
1522,1148.6815433502197
1523,1149.4395411014557
1524,1150.2165386676788
1525,1151.0195362567902
1526,1151.7975339889526
1527,1152.6085314750671
1528,1153.393529176712
1529,1154.173526763916
1530,1154.9455244541168
1531,1155.6995222568512
1532,1156.4465198516846
1533,1157.2045176029205
1534,1157.9855153560638
1535,1158.7505130767822
1536,1159.5145106315613
1537,1160.2715084552765
1538,1161.0165061950684
1539,1161.7685039043427
1540,1162.5655014514923
1541,1163.3524990081787
1542,1164.1054968833923
1543,1164.8524947166443
1544,1165.5834925174713
1545,1166.302490234375
1546,1167.0154881477356
1547,1167.724485874176
1548,1168.4274837970734
1549,1169.1314816474915
1550,1169.8544795513153
1551,1170.5714774131775
1552,1171.2884752750397
1553,1172.0014731884003
1554,1172.7184710502625
1555,1173.440468788147
1556,1174.166466474533
1557,1174.913464307785
1558,1175.6574621200562
1559,1176.4144597053528
1560,1177.1574575901031
1561,1177.9234552383423
1562,1178.6814529895782
1563,1179.4274506568909
1564,1180.187448501587
1565,1180.9584460258484
1566,1181.7214438915253
1567,1182.4924414157867
1568,1183.2554392814636
1569,1184.0374369621277
1570,1184.8144345283508
1571,1185.6004321575165
1572,1186.373429775238
1573,1187.147427558899
1574,1187.9184250831604
1575,1188.6744229793549
1576,1189.4104206562042
1577,1190.1434185504913
1578,1190.8764162063599
1579,1191.6134140491486
1580,1192.3394119739532
1581,1193.0764095783234
1582,1193.802407503128
1583,1194.5284051895142
1584,1195.2744030952454
1585,1196.009400844574
1586,1196.775398492813
1587,1197.5173962116241
1588,1198.2773940563202
1589,1199.0183918476105
1590,1199.7503895759583
1591,1200.4813873767853
1592,1201.242385149002
1593,1202.0023827552795
1594,1202.7503805160522
1595,1203.5083782672882
1596,1204.2683761119843
1597,1205.0193736553192
1598,1205.8063714504242
1599,1206.551369190216
1600,1207.3023669719696
1601,1208.0463645458221
1602,1208.7893624305725
1603,1209.5333602428436
1604,1210.271358013153
1605,1211.0043556690216
1606,1211.7233536243439
1607,1212.4523513317108
1608,1213.1903491020203
1609,1213.9363470077515
1610,1214.7333445549011
1611,1215.5093421936035
1612,1216.269339799881
1613,1217.0353376865387
1614,1217.7883353233337
1615,1218.5363330841064
1616,1219.2773308753967
1617,1220.007328748703
1618,1220.7453265190125
1619,1221.4883241653442
1620,1222.2393219470978
1621,1222.9993195533752
1622,1223.7563173770905
1623,1224.5253150463104
1624,1225.2963128089905
1625,1226.0873103141785
1626,1226.8573079109192
1627,1227.618305683136
1628,1228.3863034248352
1629,1229.1493010520935
1630,1229.9152987003326
1631,1230.669296503067
1632,1231.432294368744
1633,1232.196291923523
1634,1232.962289571762
1635,1233.7462873458862
1636,1234.518285036087
1637,1235.2812826633453
1638,1236.0382804870605
1639,1236.8342781066895
1640,1237.6112756729126
1641,1238.3862733840942
1642,1239.1492710113525
1643,1239.8862688541412
1644,1240.6172666549683
1645,1241.3302645683289
1646,1242.0492622852325
1647,1242.7582602500916
1648,1243.4462580680847
1649,1244.1262559890747
1650,1244.8002541065216
1651,1245.4682519435883
1652,1246.1532499790192
1653,1246.8382477760315
1654,1247.5302457809448
1655,1248.2622435092926
1656,1248.9592413902283
1657,1249.6642394065857
1658,1250.3742372989655
1659,1251.0882351398468
1660,1251.8082330226898
1661,1252.569230556488
1662,1253.3262283802032
1663,1254.101226091385
1664,1254.851223707199
1665,1255.6012215614319
1666,1256.3372192382812
1667,1257.07621717453
1668,1257.8112149238586
1669,1258.5392127037048
1670,1259.2712104320526
1671,1260.0032081604004
1672,1260.7092061042786
1673,1261.4302039146423
1674,1262.1462018489838
1675,1262.849199771881
1676,1263.545197725296
1677,1264.2891952991486
1678,1265.0111932754517
1679,1265.763190984726
1680,1266.5021886825562
1681,1267.252186536789
1682,1267.9991841316223
1683,1268.7421820163727
1684,1269.4981796741486
1685,1270.2551774978638
1686,1270.9901752471924
1687,1271.7341730594635
1688,1272.4891707897186
1689,1273.2261683940887
1690,1273.9421663284302
1691,1274.6461641788483
1692,1275.3471620082855
1693,1276.0461599826813
1694,1276.7241580486298
1695,1277.4021558761597
1696,1278.0821537971497
1697,1278.7571518421173
1698,1279.4281497001648
1699,1280.1141476631165
1700,1280.7861456871033
1701,1281.45614361763
1702,1282.1361417770386
1703,1282.8221395015717
1704,1283.53013753891
1705,1284.272135257721
1706,1284.9941329956055
1707,1285.736130952835
1708,1286.4851286411285
1709,1287.2391262054443
1710,1288.0121240615845
1711,1288.7511217594147
1712,1289.4801194667816
1713,1290.2151174545288
1714,1290.9661149978638
1715,1291.739112854004
1716,1292.4991104602814
1717,1293.2941081523895
1718,1294.065105676651
1719,1294.8281035423279
1720,1295.6111011505127
1721,1296.379098892212
1722,1297.1410965919495
1723,1297.9050941467285
1724,1298.6800918579102
1725,1299.4470896720886
1726,1300.2370872497559
1727,1301.0350847244263
1728,1301.8170824050903
1729,1302.6360800266266
1730,1303.452077627182
1731,1304.2520751953125
1732,1305.0540726184845
1733,1305.8400702476501
1734,1306.625067949295
1735,1307.41006565094
1736,1308.1940631866455
1737,1308.970060825348
1738,1309.7460584640503
1739,1310.5060563087463
1740,1311.2440540790558
1741,1311.9700520038605
1742,1312.6980497837067
1743,1313.4200475215912
1744,1314.1380453109741
1745,1314.8550431728363
1746,1315.5840411186218
1747,1316.3160388469696
1748,1317.0550365447998
1749,1317.7860343456268
1750,1318.503032207489
1751,1319.2220301628113
1752,1319.941027879715
1753,1320.645025730133
1754,1321.3460235595703
1755,1322.0580215454102
1756,1322.7550194263458
1757,1323.4710173606873
1758,1324.2200150489807
1759,1324.9510128498077
1760,1325.6890106201172
1761,1326.4690082073212
1762,1327.2110059261322
1763,1327.9690036773682
1764,1328.7150015830994
1765,1329.4539992809296
1766,1330.1839971542358
1767,1330.9019949436188
1768,1331.6089928150177
1769,1332.3189907073975
1770,1333.0149886608124
1771,1333.711986541748
1772,1334.4239842891693
1773,1335.1489820480347
1774,1335.8669800758362
1775,1336.5949778556824
1776,1337.3179755210876
1777,1338.0389733314514
1778,1338.7579712867737
1779,1339.469969034195
1780,1340.180967092514
1781,1340.8919649124146
1782,1341.6049628257751
1783,1342.3349604606628
1784,1343.0699582099915
1785,1343.793956041336
1786,1344.4969539642334
1787,1345.2059519290924
1788,1345.924949645996
1789,1346.636947631836
1790,1347.3469455242157
1791,1348.042943239212
1792,1348.7349412441254
1793,1349.4559390544891
1794,1350.2089369297028
1795,1350.9569344520569
1796,1351.7399322986603
1797,1352.5009298324585
1798,1353.2599277496338
1799,1354.0029253959656
1800,1354.7319231033325
1801,1355.4569211006165
1802,1356.1889188289642
1803,1356.9269165992737
1804,1357.667914390564
1805,1358.4039120674133
1806,1359.1499099731445
1807,1359.8739078044891
1808,1360.5999054908752
1809,1361.3239033222198
1810,1362.0489010810852
1811,1362.7658989429474
1812,1363.4718968868256
1813,1364.1908948421478
1814,1364.9148926734924
1815,1365.6348903179169
1816,1366.3558881282806
1817,1367.0628859996796
1818,1367.7858839035034
1819,1368.4948818683624
1820,1369.2018797397614
1821,1369.9128775596619
1822,1370.6228754520416
1823,1371.3308732509613
1824,1372.0378711223602
1825,1372.7598688602448
1826,1373.4848668575287
1827,1374.223864555359
1828,1374.9448623657227
1829,1375.6888601779938
1830,1376.4428579807281
1831,1377.1808557510376
1832,1377.9758532047272
1833,1378.7598509788513
1834,1379.5348484516144
1835,1380.2978463172913
1836,1381.0478439331055
1837,1381.7848417758942
1838,1382.507839679718
1839,1383.247837305069
1840,1383.980835199356
1841,1384.7028329372406
1842,1385.4428308010101
1843,1386.1818284988403
1844,1386.9178264141083
1845,1387.6448242664337
1846,1388.3958218097687
1847,1389.1798195838928
1848,1389.9318172931671
1849,1390.6868150234222
1850,1391.4528126716614
1851,1392.2208104133606
1852,1392.9788081645966
1853,1393.7378058433533
1854,1394.4898035526276
1855,1395.251801252365
1856,1396.0217988491058
1857,1396.778796672821
1858,1397.5307943820953
1859,1398.3017921447754
1860,1399.047789812088
1861,1399.7847876548767
1862,1400.523785352707
1863,1401.2687830924988
1864,1401.9977810382843
1865,1402.7157788276672
1866,1403.4297766685486
1867,1404.154774427414
1868,1404.8617722988129
1869,1405.565770149231
1870,1406.2757680416107
1871,1406.9937658309937
1872,1407.707763671875
1873,1408.4347615242004
1874,1409.1617593765259
1875,1409.878757238388
1876,1410.6047551631927
1877,1411.3337528705597
1878,1412.0677506923676
1879,1412.792748451233
1880,1413.5437462329865
1881,1414.2857439517975
1882,1415.047741651535
1883,1415.8137392997742
1884,1416.5687370300293
1885,1417.3247349262238
1886,1418.0677325725555
1887,1418.8037304878235
1888,1419.523728132248
1889,1420.2317261695862
1890,1420.9557240009308
1891,1421.6737217903137
1892,1422.3837196826935
1893,1423.0957174301147
1894,1423.8267152309418
1895,1424.5607130527496
1896,1425.287710905075
1897,1426.045708656311
1898,1426.7807064056396
1899,1427.5267040729523
1900,1428.2867019176483
1901,1429.0266995429993
1902,1429.7896974086761
1903,1430.5606949329376
1904,1431.327692747116
1905,1432.0846903324127
1906,1432.852688074112
1907,1433.607685804367
1908,1434.3596835136414
1909,1435.1246812343597
1910,1435.9076788425446
1911,1436.7056765556335
1912,1437.4806742668152
1913,1438.26167178154
1914,1439.0446693897247
1915,1439.8106672763824
1916,1440.5556650161743
1917,1441.719661474228
1918,1442.712658405304
1919,1443.4336562156677
1920,1444.161653995514
1921,1444.8616518974304
1922,1445.558649778366
1923,1446.2666478157043
1924,1447.0176455974579
1925,1447.7476432323456
1926,1448.5346410274506
1927,1449.3266384601593
1928,1450.1066362857819
1929,1450.883633852005
1930,1451.6866314411163
1931,1452.4526290893555
1932,1453.2366268634796
1933,1454.0416243076324
1934,1454.8066220283508
1935,1455.5526196956635
1936,1456.2956175804138
1937,1457.0406153202057
1938,1457.7636132240295
1939,1458.4816110134125
1940,1459.2096087932587
1941,1459.9356067180634
1942,1460.6806044578552
1943,1461.450602054596
1944,1462.2015998363495
1945,1462.9445974826813
1946,1463.7015953063965
1947,1464.461592912674
1948,1465.2205905914307
1949,1465.9825885295868
1950,1466.7535860538483
1951,1467.5025837421417
1952,1468.2575814723969
1953,1469.0325791835785
1954,1469.8155767917633
1955,1470.5835745334625
1956,1471.3585722446442
1957,1472.143569946289
1958,1472.9405674934387
1959,1473.7245650291443
1960,1474.5425627231598
1961,1475.3615601062775
1962,1476.1495578289032
1963,1476.9465553760529
1964,1477.774552822113
1965,1478.5635504722595
1966,1479.3365483283997
1967,1480.1085460186005
1968,1480.8755435943604
1969,1481.6575412750244
1970,1482.4175388813019
1971,1483.1525366306305
1972,1483.9015345573425
1973,1484.6545321941376
1974,1485.4045300483704
1975,1486.1405277252197
1976,1486.8885254859924
1977,1487.6095232963562
1978,1488.321521282196
1979,1489.048518896103
1980,1489.768516778946
1981,1490.4895145893097
1982,1491.2265124320984
1983,1491.9605102539062
1984,1492.7005081176758
1985,1493.4485058784485
1986,1494.1905035972595
1987,1494.9465012550354
1988,1495.6964991092682
1989,1496.4584968090057
1990,1497.2164943218231
1991,1497.9574921131134
1992,1498.7474899291992
1993,1499.5584874153137
1994,1500.3584849834442
1995,1501.1554825305939
1996,1501.9554800987244
1997,1502.752477645874
1998,1503.5364754199982
1999,1504.354472875595
2000,1505.1844704151154
2001,1505.9794681072235
2002,1506.763465642929
2003,1507.5634632110596
2004,1508.3694608211517
2005,1509.1604585647583
2006,1509.9374561309814
2007,1510.710453748703
2008,1511.470451593399
2009,1512.2074491977692
2010,1512.9404470920563
2011,1513.5634453296661
2012,1514.5204422473907
2013,1515.2514400482178
2014,1515.97043800354
2015,1516.6874358654022
2016,1517.3944337368011
2017,1518.09943151474
2018,1518.808429479599
2019,1519.5114274024963
2020,1520.219425201416
2021,1520.9444229602814
2022,1521.668420791626
2023,1522.4134185314178
2024,1523.1654162406921
2025,1523.9064140319824
2026,1524.6444118022919
2027,1525.3944096565247
2028,1526.1494073867798
2029,1526.8924050331116
2030,1527.6374027729034
2031,1528.390400648117
2032,1529.1273984909058
2033,1529.8743960857391
2034,1530.6313939094543
2035,1531.3593916893005
2036,1532.09538936615
2037,1532.8243873119354
2038,1533.5403850078583
2039,1534.2463829517365
2040,1534.9643807411194
2041,1535.6873786449432
2042,1536.397376537323
2043,1537.1073744297028
2044,1537.8223721981049
2045,1538.5433700084686
2046,1539.2663679122925
2047,1539.9953656196594
2048,1540.7333633899689
2049,1541.466361284256
2050,1542.2003591060638
2051,1542.9403567314148
2052,1543.69735455513
2053,1544.439352273941
2054,1545.1773500442505
2055,1545.9313478469849
2056,1546.6663455963135
2057,1547.3943433761597
2058,1548.1253411769867
2059,1548.8513391017914
2060,1549.5783369541168
2061,1550.2953345775604
2062,1551.0163326263428
2063,1551.7243304252625
2064,1552.437328338623
2065,1553.16432595253
2066,1553.899323940277
2067,1554.6163218021393
2068,1555.335319519043
2069,1556.0723173618317
2070,1556.8203151226044
2071,1557.5513129234314
2072,1558.2823107242584
2073,1559.0303084850311
2074,1559.802306175232
2075,1560.5613038539886
2076,1561.3163015842438
2077,1562.060299396515
2078,1562.8112969398499
2079,1563.5742948055267
2080,1564.3092925548553
2081,1565.0582902431488
2082,1565.8112878799438
2083,1566.57128572464
2084,1567.31028342247
2085,1568.0252814292908
2086,1568.7472791671753
2087,1569.468276977539
2088,1570.1902747154236
2089,1570.8962726593018
2090,1571.6162705421448
2091,1572.355268239975
2092,1573.086266040802
2093,1573.8272638320923
2094,1574.5852615833282
2095,1575.3242592811584
2096,1576.0682570934296
2097,1576.8452548980713
2098,1577.5842525959015
2099,1578.3262503147125
2100,1579.0812480449677
2101,1579.8342456817627
2102,1580.575243473053
2103,1581.3212413787842
2104,1582.0682389736176
2105,1582.8252367973328
2106,1583.5902345180511
2107,1584.3612322807312
2108,1585.1732296943665
2109,1585.92622756958
2110,1586.6602251529694
2111,1587.3912229537964
2112,1588.1742208003998
2113,1588.9562182426453
2114,1589.7192161083221
2115,1590.4982137680054
2116,1591.2832112312317
2117,1592.042209148407
2118,1592.8022067546844
2119,1593.569204568863
2120,1594.346202135086
2121,1595.15819978714
2122,1596.011197090149
2123,1596.817194700241
2124,1597.6341922283173
2125,1598.4341897964478
2126,1599.2011876106262
2127,1599.968185186386
2128,1600.7501828670502
2129,1601.506180524826
2130,1602.2711782455444
2131,1603.0251760482788
2132,1603.7671737670898
2133,1604.5181715488434
2134,1605.2711691856384
2135,1606.0261669158936
2136,1606.7851645946503
2137,1607.573162317276
2138,1608.3321599960327
2139,1609.084157705307
2140,1609.826155424118
2141,1610.564153432846
2142,1611.2891511917114
2143,1612.02414894104
2144,1612.771146774292
2145,1613.5011444091797
2146,1614.233142375946
2147,1614.9581401348114
2148,1615.677137851715
2149,1616.3931357860565
2150,1617.1011335849762
2151,1617.8201315402985
2152,1618.5391292572021
2153,1619.262127161026
2154,1619.993124961853
2155,1620.7311227321625
2156,1621.455120563507
2157,1622.178118467331
2158,1622.8871161937714
2159,1623.5851142406464
2160,1624.2781119346619
2161,1624.9771099090576
2162,1625.6631078720093
2163,1626.357105731964
2164,1627.0671036243439
2165,1627.7861015796661
2166,1628.5110993385315
2167,1629.2360970973969
2168,1629.9680948257446
2169,1630.698092699051
2170,1631.4210906028748
2171,1632.1260883808136
2172,1632.8210864067078
2173,1633.509084224701
2174,1634.1950821876526
2175,1634.8900802135468
2176,1635.586077928543
2177,1636.284075975418
2178,1636.9730739593506
2179,1637.671071767807
2180,1638.3650696277618
2181,1639.0890674591064
2182,1639.789065361023
2183,1640.5140631198883
2184,1641.264060974121
2185,1641.9730587005615
2186,1642.7060565948486
2187,1643.4320545196533
2188,1644.1430523395538
2189,1644.8640501499176
2190,1645.5760478973389
2191,1646.282045841217
2192,1647.00204372406
2193,1647.7210414409637
2194,1648.4390392303467
2195,1649.1630370616913
2196,1649.8970348834991
2197,1650.6100327968597
2198,1651.3170306682587
2199,1652.0120286941528
2200,1652.6910264492035
2201,1653.3660244941711
2202,1654.0350224971771
2203,1654.7120203971863
2204,1655.3740184307098
2205,1656.027016401291
2206,1656.6900146007538
2207,1657.3500125408173
2208,1658.0230104923248
2209,1658.7040083408356
2210,1659.3810064792633
2211,1660.0650043487549
2212,1660.7480022907257
2213,1661.4430003166199
2214,1662.1369981765747
2215,1662.8419959545135
2216,1663.557993888855
2217,1664.2949917316437
2218,1664.995989561081
2219,1665.7129874229431
2220,1666.4259850978851
2221,1667.148983001709
2222,1667.895980834961
2223,1668.6169786453247
2224,1669.346976518631
2225,1670.059974193573
2226,1670.7619721889496
2227,1671.4499700069427
2228,1672.1279680728912
2229,1672.8009660243988
2230,1673.4789640903473
2231,1674.1549620628357
2232,1674.8459599018097
2233,1675.5349578857422
2234,1676.241955757141
2235,1676.94695353508
2236,1677.650951385498
2237,1678.3679492473602
2238,1679.1219470500946
2239,1679.8519449234009
2240,1680.5659427642822
2241,1681.281940460205
2242,1681.990938425064
2243,1682.6939363479614
2244,1683.393934249878
2245,1684.095932006836
2246,1684.8059298992157
2247,1685.5139276981354
2248,1686.2459256649017
2249,1686.9759232997894
2250,1687.6899211406708
2251,1688.397919178009
2252,1689.0939168930054
2253,1689.7729148864746
2254,1690.4409129619598
2255,1691.106910943985
2256,1691.759908914566
2257,1692.4239070415497
2258,1693.0899050235748
2259,1693.7729029655457
2260,1694.457900762558
2261,1695.1618988513947
2262,1695.8778965473175
2263,1696.6218943595886
2264,1697.3418922424316
2265,1698.0718898773193
2266,1698.808887720108
2267,1699.5608854293823
2268,1700.302883386612
2269,1701.0378811359406
2270,1701.77587890625
2271,1702.4998767375946
2272,1703.2208745479584
2273,1703.9408724308014
2274,1704.6658701896667
2275,1705.3918678760529
2276,1706.1168658733368
2277,1706.8408637046814
2278,1707.5688614845276
2279,1708.3128590583801
2280,1709.0528569221497
2281,1709.7868547439575
2282,1710.526852607727
2283,1711.2728502750397
2284,1711.999848127365
2285,1712.7378458976746
2286,1713.488843679428
2287,1714.2388412952423
2288,1714.9898390769958
2289,1715.7358367443085
2290,1716.4718346595764
2291,1717.2098324298859
2292,1717.9498300552368
2293,1718.7508277893066
2294,1719.5148253440857
2295,1720.2488231658936
2296,1720.9638211727142
2297,1721.6788189411163
2298,1722.3898167610168
2299,1723.1018147468567
2300,1723.8188126087189
2301,1724.5488102436066
2302,1725.3188080787659
2303,1726.0948057174683
2304,1726.8618032932281
2305,1727.6668009757996
2306,1728.4957983493805
2307,1729.2917959690094
2308,1730.0997936725616
2309,1730.9347910881042
2310,1731.7587885856628
2311,1732.5967860221863
2312,1733.3947837352753
2313,1734.1797814369202
2314,1734.9667789936066
2315,1735.7577764987946
2316,1736.5237743854523
2317,1737.2657721042633
2318,1738.008769750595
2319,1738.7597675323486
2320,1739.5097653865814
2321,1740.2517631053925
2322,1740.9967608451843
2323,1741.7467584609985
2324,1742.5047562122345
2325,1743.2527539730072
2326,1744.0017516613007
2327,1744.7697494029999
2328,1745.5327472686768
2329,1746.295744895935
2330,1747.0767424106598
2331,1747.8727400302887
2332,1748.6727375984192
2333,1749.4677352905273
2334,1750.2347331047058
2335,1751.013730764389
2336,1751.7957282066345
2337,1752.5667259693146
2338,1753.3197236061096
2339,1754.0487215518951
2340,1754.7977192401886
2341,1755.549716949463
2342,1756.2927148342133
2343,1757.029712677002
2344,1757.7727103233337
2345,1758.4987082481384
2346,1759.2297060489655
2347,1759.9687037467957
2348,1760.709701538086
2349,1761.4586992263794
2350,1762.2236969470978
2351,1762.986694574356
2352,1763.7426924705505
2353,1764.4856901168823
2354,1765.2376878261566
2355,1766.000685453415
2356,1766.7636833190918
2357,1767.5116810798645
2358,1768.2616786956787
2359,1768.993676662445
2360,1769.733674287796
2361,1770.4746720790863
2362,1771.200670003891
2363,1771.9236676692963
2364,1772.6636655330658
2365,1773.380663394928
2366,1774.0946612358093
2367,1774.8146591186523
2368,1775.5516567230225
2369,1776.2906546592712
2370,1777.0506522655487
2371,1777.8346500396729
2372,1778.62464761734
2373,1779.3726453781128
2374,1780.1216430664062
2375,1780.882640838623
2376,1781.635638475418
2377,1782.3786363601685
2378,1783.1256339550018
2379,1783.869631767273
2380,1784.6146295070648
2381,1785.3996272087097
2382,1786.140625
2383,1786.8916227817535
2384,1787.638620376587
2385,1788.393618106842
2386,1789.140615940094
2387,1789.9006135463715
2388,1790.642611503601
2389,1791.3796091079712
2390,1792.1336069107056
2391,1792.8836047649384
2392,1793.6216025352478
2393,1794.3696002960205
2394,1795.1285979747772
2395,1795.8855955600739
2396,1796.6465933322906
2397,1797.395591020584
2398,1798.1145889759064
2399,1798.8195867538452
2400,1799.5415847301483
2401,1800.2665824890137
2402,1800.989580154419
2403,1801.7235779762268
2404,1802.440575838089
2405,1803.162573814392
2406,1803.8835716247559
2407,1804.6025693416595
2408,1805.316567182541
2409,1806.062565088272
2410,1806.7945628166199
2411,1807.514560699463
2412,1808.2505583763123
2413,1808.9855561256409
2414,1809.707554101944
2415,1810.4295518398285
2416,1811.142549753189
2417,1811.847547531128
2418,1812.5545454025269
2419,1813.2745432853699
2420,1813.9885411262512
2421,1814.7505388259888
2422,1815.4905366897583
2423,1816.2195343971252
2424,1816.9575321674347
2425,1817.6695301532745
2426,1818.3735280036926
2427,1819.0795259475708
2428,1819.7995235919952
2429,1820.5055215358734
2430,1821.2045195102692
2431,1821.909517288208
2432,1822.645515203476
2433,1823.3795127868652
2434,1824.102510690689
2435,1824.8265085220337
2436,1825.5615062713623
2437,1826.282504081726
2438,1826.9935019016266
2439,1827.7154998779297
2440,1828.451497554779
2441,1829.1844954490662
2442,1829.951493024826
2443,1830.7304906845093
2444,1831.4814884662628
2445,1832.2344863414764
2446,1832.9844839572906
2447,1833.7464816570282
2448,1834.4794795513153
2449,1835.1964774131775
2450,1835.983474969864
2451,1836.749472618103
2452,1837.5434703826904
2453,1838.2854681015015
2454,1839.0144658088684
2455,1839.7524635791779
2456,1840.474461555481
2457,1841.187459230423
2458,1841.9044570922852
2459,1842.611454963684
2460,1843.3304529190063
2461,1844.0594506263733
2462,1844.8034484386444
2463,1845.5474462509155
2464,1846.309443950653
2465,1847.0554416179657
2466,1847.7894394397736
2467,1848.543437242508
2468,1849.3104348182678
2469,1850.0454325675964
2470,1850.780430316925
2471,1851.5554280281067
2472,1852.301425933838
2473,1853.0524237155914
2474,1853.8004212379456
2475,1854.589418888092
2476,1855.336416721344
2477,1856.0854144096375
2478,1856.838412284851
2479,1857.6224098205566
2480,1858.363407611847
2481,1859.1124053001404
2482,1859.863403081894
2483,1860.6134009361267
2484,1861.3083987236023
2485,1862.1063964366913
2486,1862.852394104004
2487,1863.5973918437958
2488,1864.352389574051
2489,1865.1653871536255
2490,1865.954384803772
2491,1866.7493824958801
2492,1867.5773799419403
2493,1868.3603775501251
2494,1869.1503751277924
2495,1869.965372800827
2496,1870.74037027359
2497,1871.5223679542542
2498,1872.3033657073975
2499,1873.074363231659
2500,1873.834361076355
2501,1874.58735871315
2502,1875.3413565158844
2503,1876.0823543071747
2504,1876.8243520259857
2505,1877.5773499011993
2506,1878.3223476409912
2507,1879.0513453483582
2508,1879.801343202591
2509,1880.5833406448364
2510,1881.3173384666443
2511,1882.038336277008
2512,1882.78733420372
2513,1883.5753316879272
2514,1884.3383295536041
2515,1885.0913271903992
2516,1885.8503248691559
2517,1886.6393225193024
2518,1887.40132021904
2519,1888.1633179187775
2520,1888.9593155384064
2521,1889.7603130340576
2522,1890.5423107147217
2523,1891.3203084468842
2524,1892.1283059120178
2525,1892.9143035411835
2526,1893.7023012638092
2527,1894.5262987613678
2528,1895.3252964019775
2529,1896.1132941246033
2530,1896.910291671753
2531,1897.7232892513275
2532,1898.494286775589
2533,1899.2702844142914
2534,1900.0662820339203
2535,1900.8512797355652
2536,1901.625277519226
2537,1902.408275127411
2538,1903.2212727069855
2539,1903.9872703552246
2540,1904.7752678394318
2541,1905.532265663147
2542,1906.2452635765076
2543,1906.9402613639832
2544,1907.6572592258453
2545,1908.394257068634
2546,1909.1552548408508
2547,1909.945252418518
2548,1910.7372500896454
2549,1911.5412476062775
2550,1912.352245092392
2551,1913.183242559433
2552,1914.038239955902
2553,1914.879237651825
2554,1915.7112350463867
2555,1916.5402326583862
2556,1917.3812301158905
2557,1918.2352273464203
2558,1919.039225101471
2559,1919.8242225646973
2560,1920.6082203388214
2561,1921.3952178955078
2562,1922.1512155532837
2563,1922.905213356018
2564,1923.6532111167908
2565,1924.3852088451385
2566,1925.1152067184448
2567,1925.8382046222687
2568,1926.547202348709
2569,1927.2642002105713
2570,1928.0081980228424
2571,1928.7361958026886
2572,1929.4591937065125
2573,1930.2011914253235
2574,1930.9331891536713
2575,1931.6571869850159
2576,1932.3951847553253
2577,1933.1361825466156
2578,1933.8771803379059
2579,1934.608178138733
2580,1935.336175918579
2581,1936.081173658371
2582,1936.814171552658
2583,1937.5351693630219
2584,1938.263167142868
2585,1939.0021648406982
2586,1939.7491626739502
2587,1940.4731605052948
2588,1941.2001583576202
2589,1941.943156003952
2590,1942.7071537971497
2591,1943.423151731491
2592,1944.1311495304108
2593,1944.8351473808289
2594,1945.5341453552246
2595,1946.234143257141
2596,1946.9201412200928
2597,1947.62113904953
2598,1948.314136981964
2599,1949.043134689331
2600,1949.7431325912476
2601,1950.4661304950714
2602,1951.1921281814575
2603,1951.9121260643005
2604,1952.6221239566803
2605,1953.3341217041016
2606,1954.0781195163727
2607,1954.7901175022125
2608,1955.499115228653
2609,1956.221113204956
2610,1956.9411108493805
2611,1957.665108680725
2612,1958.3891065120697
2613,1959.0991044044495
2614,1959.7951023578644
2615,1960.4771003723145
2616,1961.1650981903076
2617,1961.8420963287354
2618,1962.5310940742493
2619,1963.21409201622
2620,1963.89408993721
2621,1964.5870878696442
2622,1965.2810859680176
2623,1965.9720838069916
2624,1966.6680817604065
2625,1967.3690795898438
2626,1968.0790774822235
2627,1968.7720754146576
2628,1969.4660732746124
2629,1970.179071187973
2630,1970.8850688934326
2631,1971.601066827774
2632,1972.3250646591187
2633,1973.0400624275208
2634,1973.7440602779388
2635,1974.4580583572388
2636,1975.1670560836792
2637,1975.8680539131165
2638,1976.5660519599915
2639,1977.2650496959686
2640,1977.959047794342
2641,1978.6560456752777
2642,1979.3890433311462
2643,1980.1020412445068
2644,1980.817039012909
2645,1981.5460369586945
2646,1982.2580347061157
2647,1982.9680325984955
2648,1983.679030418396
2649,1984.4300282001495
2650,1985.1470260620117
2651,1985.8670239448547
2652,1986.595021724701
2653,1987.3180196285248
2654,1988.0370173454285
2655,1988.7760150432587
2656,1989.5340127944946
2657,1990.290010690689
2658,1991.0260083675385
2659,1991.7950060367584
2660,1992.5640037059784
2661,1993.3080015182495
2662,1994.0359992980957
2663,1994.7739970684052
2664,1995.5179948806763
2665,1996.2449927330017
2666,1996.974990606308
2667,1997.692988395691
2668,1998.4049861431122
2669,1999.1209840774536
2670,1999.8319818973541
2671,2000.549979686737
2672,2001.2509775161743
2673,2001.9839754104614
2674,2002.6959731578827
2675,2003.3969712257385
2676,2004.1019690036774
2677,2004.814966917038
2678,2005.5199646949768
2679,2006.227962732315
2680,2006.9359605312347
2681,2007.6359584331512
2682,2008.3509562015533
2683,2009.0709540843964
2684,2009.7889518737793
2685,2010.512949705124
2686,2011.2449474334717
2687,2011.9759452342987
2688,2012.6879432201385
2689,2013.4159409999847
2690,2014.134938955307
2691,2014.841936826706
2692,2015.5479345321655
2693,2016.2539324760437
2694,2016.967930316925
2695,2017.6759281158447
2696,2018.394926071167
2697,2019.1379237174988
2698,2019.8609216213226
2699,2020.5999193191528
2700,2021.3589169979095
2701,2022.0899147987366
2702,2022.8069126605988
2703,2023.512910604477
2704,2024.2309083938599
2705,2024.9409062862396
2706,2025.6479041576385
2707,2026.3469021320343
2708,2027.04189991951
2709,2027.7298979759216
2710,2028.4228959083557
2711,2029.1098937988281
2712,2029.7968916893005
2713,2030.4848897457123
2714,2031.1698875427246
2715,2031.8638854026794
2716,2032.57688331604
2717,2033.2808811664581
2718,2033.9948790073395
2719,2034.736876964569
2720,2035.465874671936
2721,2036.194872379303
2722,2036.8978703022003
2723,2037.6028683185577
2724,2038.3458659648895
2725,2039.107863664627
2726,2039.8948612213135
2727,2040.6978588104248
2728,2041.4588565826416
2729,2042.245854139328
2730,2043.0028519630432
2731,2043.7838497161865
2732,2044.5408473014832
2733,2045.30384516716
2734,2046.0338428020477
2735,2046.763840675354
2736,2047.5128383636475
2737,2048.287836074829
2738,2049.032833814621
2739,2049.768831729889
2740,2050.5068295001984
2741,2051.2438271045685
2742,2051.970824956894
2743,2052.689822912216
2744,2053.4338204860687
2745,2054.1978182792664
2746,2054.958816051483
2747,2055.7458136081696
2748,2056.510811328888
2749,2057.2748091220856
2750,2058.023806810379
2751,2058.7968044281006
2752,2059.5498020648956
2753,2060.2987999916077
2754,2061.0407977104187
2755,2061.8117954730988
2756,2062.5707931518555
2757,2063.3347907066345
2758,2064.1037883758545
2759,2064.868786096573
2760,2065.590784072876
2761,2066.3207817077637
2762,2067.0737795829773
2763,2067.835777282715
2764,2068.5687749385834
2765,2069.3137726783752
2766,2070.0547704696655
2767,2070.8087682724
2768,2071.5467660427094
2769,2072.319763660431
2770,2073.106761455536
2771,2073.885759115219
2772,2074.668756723404
2773,2075.4707543849945
2774,2076.2377519607544
2775,2076.9787497520447
2776,2077.706747531891
2777,2078.47274518013
2778,2079.259742975235
2779,2080.025740623474
2780,2080.830738067627
2781,2081.6327357292175
2782,2082.418733358383
2783,2083.2217309474945
2784,2084.023728609085
2785,2084.805726289749
2786,2085.602723836899
2787,2086.446721315384
2788,2087.2847187519073
2789,2088.1027162075043
2790,2088.928713798523
2791,2089.7227113246918
2792,2090.5347089767456
2793,2091.3577065467834
2794,2092.187703847885
2795,2093.028701543808
2796,2093.8246989250183
2797,2094.6006968021393
2798,2095.3936944007874
2799,2096.209691762924
2800,2096.9686896800995
2801,2097.7236874103546
2802,2098.4776849746704
2803,2099.2406828403473
2804,2099.985680580139
2805,2100.75367808342
2806,2101.5436758995056
2807,2102.303673505783
2808,2103.0816712379456
2809,2103.8776688575745
2810,2104.6686663627625
2811,2105.445664167404
2812,2106.215661764145
2813,2107.0206592082977
2814,2107.815656900406
2815,2108.608654499054
2816,2109.4406521320343
2817,2110.2546496391296
2818,2111.0116472244263
2819,2111.7706451416016
2820,2112.5356426239014
2821,2113.285640478134
2822,2114.0456380844116
2823,2114.802635908127
2824,2115.559633731842
2825,2116.3456313610077
2826,2117.156628847122
2827,2117.9276266098022
2828,2118.7016241550446
2829,2119.474621772766
2830,2120.2426195144653
2831,2121.0026173591614
2832,2121.8166148662567
2833,2122.614612340927
2834,2123.373610019684
2835,2124.1266078948975
2836,2124.875605583191
2837,2125.628603219986
2838,2126.4066009521484
2839,2127.1525988578796
2840,2127.910596370697
2841,2128.649594306946
2842,2129.375591993332
2843,2130.0985898971558
2844,2130.8225877285004
2845,2131.5585854053497
2846,2132.2875833511353
2847,2133.017580986023
2848,2133.751578807831
2849,2134.5015766620636
2850,2135.234574317932
2851,2135.9935722351074
2852,2136.7325699329376
2853,2137.4535677433014
2854,2138.1705656051636
2855,2138.8875634670258
2856,2139.590561389923
2857,2140.2995591163635
2858,2141.012557029724
2859,2141.7255549430847
2860,2142.4825525283813
2861,2143.192550420761
2862,2143.9165482521057
2863,2144.643546104431
2864,2145.3575439453125
2865,2146.0645418167114
2866,2146.7565398216248
2867,2147.4425377845764
2868,2148.129535675049
2869,2148.8105335235596
2870,2149.4965314865112
2871,2150.192529439926
2872,2150.9045271873474
2873,2151.6405251026154
2874,2152.3575229644775
2875,2153.0945205688477
2876,2153.835518360138
2877,2154.5965161323547
2878,2155.3225140571594
2879,2156.060511827469
2880,2156.7955095767975
2881,2157.5395073890686
2882,2158.286504983902
2883,2159.02050280571
2884,2159.761500597
2885,2160.5044984817505
2886,2161.2844960689545
2887,2162.0344936847687
2888,2162.7684915065765
2889,2163.487489461899
2890,2164.1974873542786
2891,2164.906485080719
2892,2165.6064829826355
2893,2166.292480945587
2894,2167.004478931427
2895,2167.7624764442444
2896,2168.545474290848
2897,2169.3484716415405
2898,2170.1474692821503
2899,2170.9454669952393
2900,2171.7944643497467
2901,2172.6444618701935
2902,2173.460459470749
2903,2174.2744569778442
2904,2175.1054544448853
2905,2175.9244520664215
2906,2176.7044496536255
2907,2177.4974472522736
2908,2178.3234448432922
2909,2179.1114423274994
2910,2179.9014399051666
2911,2180.671437740326
2912,2181.439435482025
2913,2182.2004330158234
2914,2182.972430706024
2915,2183.749428510666
2916,2184.540426015854
2917,2185.332423686981
2918,2186.166421175003
2919,2186.9944186210632
2920,2187.791416168213
2921,2188.5744140148163
2922,2189.3704113960266
2923,2190.1694090366364
2924,2190.952406644821
2925,2191.7354044914246
2926,2192.544401884079
2927,2193.323399543762
2928,2194.1013972759247
2929,2194.85839509964
2930,2195.619392633438
2931,2196.388390302658
2932,2197.1423881053925
2933,2197.9053857326508
2934,2198.7043833732605
2935,2199.4493811130524
2936,2200.2173788547516
2937,2200.9783766269684
2938,2201.7333743572235
2939,2202.5033719539642
2940,2203.3063695430756
2941,2204.0723671913147
2942,2204.8323650360107
2943,2205.5833628177643
2944,2206.3413603305817
2945,2207.135358095169
2946,2207.891355752945
2947,2208.6543533802032
2948,2209.4363510608673
2949,2210.21434879303
2950,2210.964346408844
2951,2211.713344335556
2952,2212.4633419513702
2953,2213.2293395996094
2954,2214.023337364197
2955,2214.8143348693848
2956,2215.6053326129913
2957,2216.362330198288
2958,2217.1133279800415
2959,2217.8843257427216
2960,2218.6753232479095
2961,2219.431321144104
2962,2220.1913187503815
2963,2220.9523165225983
2964,2221.713314294815
2965,2222.4603118896484
2966,2223.219309568405
2967,2223.969307422638
2968,2224.703305244446
2969,2225.4303030967712
2970,2226.154300928116
2971,2226.920298576355
2972,2227.6612963676453
2973,2228.4002940654755
2974,2229.1392917633057
2975,2229.9112894535065
2976,2230.6682872772217
2977,2231.436285018921
2978,2232.226282596588
2979,2232.987280368805
2980,2233.7332780361176
2981,2234.4922757148743
2982,2235.27827334404
2983,2236.097270965576
2984,2236.916268348694
2985,2237.73726606369
2986,2238.544263601303
2987,2239.3572611808777
2988,2240.13125872612
2989,2240.9172563552856
2990,2241.6972539424896
2991,2242.5112516880035
2992,2243.293249130249
2993,2244.06724691391
2994,2244.83624458313
2995,2245.6362421512604
2996,2246.398239850998
2997,2247.156237602234
2998,2247.9612352848053
2999,2248.7652328014374
3000,2249.5232305526733
3001,2250.283228158951
3002,2251.088225841522
3003,2251.9002232551575
3004,2252.689220905304
3005,2253.50821852684
3006,2254.3192160129547
3007,2255.101213693619
3008,2255.8742113113403
3009,2256.657208919525
3010,2257.4362065792084
3011,2258.1932044029236
3012,2258.939202070236
3013,2259.697199821472
3014,2260.4791975021362
3015,2261.238195180893
3016,2262.00119304657
3017,2262.7601907253265
3018,2263.5081884860992
3019,2264.251186132431
3020,2265.0141837596893
3021,2265.777181625366
3022,2266.563179254532
3023,2267.3201768398285
3024,2268.0811746120453
3025,2268.8471722602844
3026,2269.6431698799133
3027,2270.415167570114
3028,2271.190165281296
3029,2271.9741628170013
3030,2272.7551605701447
3031,2273.517158269882
3032,2274.267156124115
3033,2275.036153793335
3034,2275.8281512260437
3035,2276.593148946762
3036,2277.3581466674805
3037,2278.1041445732117
3038,2278.8521423339844
3039,2279.6151399612427
3040,2280.353137731552
3041,2281.0771355628967
3042,2281.805133342743
3043,2282.5321311950684
3044,2283.2601289749146
3045,2283.9971268177032
3046,2284.7611243724823
3047,2285.4921221733093
3048,2286.229120016098
3049,2286.9531178474426
3050,2287.6841156482697
3051,2288.4231133461
3052,2289.1461112499237
3053,2289.873109102249
3054,2290.6351068019867
3055,2291.3861045837402
3056,2292.140102148056
3057,2292.8910999298096
3058,2293.6380977630615
3059,2294.4020953178406
3060,2295.14209318161
3061,2295.8820910453796
3062,2296.6220886707306
3063,2297.368086576462
3064,2298.094084262848
3065,2298.825082063675
3066,2299.5640799999237
3067,2300.3280775547028
3068,2301.0520753860474
3069,2301.775073289871
3070,2302.5170710086823
3071,2303.2600688934326
3072,2304.0030665397644
3073,2304.7440643310547
3074,2305.4860620498657
3075,2306.2230598926544
3076,2306.94805765152
3077,2307.6710555553436
3078,2308.3920533657074
3079,2309.1220512390137
3080,2309.845048904419
3081,2310.568046808243
3082,2311.294044494629
3083,2312.024042367935
3084,2312.7520401477814
3085,2313.49103808403
3086,2314.2300357818604
3087,2314.9610335826874
3088,2315.6650314331055
3089,2316.3560292720795
3090,2317.083027124405
3091,2317.8220250606537
3092,2318.5790226459503
3093,2319.349020242691
3094,2320.122018098831
3095,2320.865015745163
3096,2321.611013650894
3097,2322.341011285782
3098,2323.0670092105865
3099,2323.778007030487
3100,2324.5400047302246
3101,2325.2990024089813
3102,2326.0570001602173
3103,2326.8259978294373
3104,2327.600995540619
3105,2328.4009931087494
3106,2329.1859908103943
3107,2329.963988304138
3108,2330.7099862098694
3109,2331.4549839496613
3110,2332.2479815483093
3111,2333.0289793014526
3112,2333.8209767341614
3113,2334.6299743652344
3114,2335.455971956253
3115,2336.237969636917
3116,2337.015967130661
3117,2337.822964668274
3118,2338.6379623413086
3119,2339.456959962845
3120,2340.2919573783875
3121,2341.1219549179077
3122,2341.9619522094727
3123,2342.8149497509003
3124,2343.6459472179413
3125,2344.4509449005127
3126,2345.23894238472
3127,2346.055939912796
3128,2346.901937484741
3129,2347.7429349422455
3130,2348.5359325408936
3131,2349.3189301490784
3132,2350.1089277267456
3133,2350.937925338745
3134,2351.707922935486
3135,2352.500920534134
3136,2353.325918197632
3137,2354.128915786743
3138,2354.9619131088257
3139,2355.7979106903076
3140,2356.6449081897736
3141,2357.4439058303833
3142,2358.254903316498
3143,2359.1039006710052
3144,2359.948898077011
3145,2360.762895822525
3146,2361.5688931941986
3147,2362.370890855789
3148,2363.191888332367
3149,2363.965886116028
3150,2364.7408838272095
3151,2365.526881456375
3152,2366.330878973007
3153,2367.1258766651154
3154,2367.887874364853
3155,2368.7008719444275
3156,2369.527869462967
3157,2370.3128669261932
3158,2371.1218645572662
3159,2371.9488620758057
3160,2372.7398595809937
3161,2373.519857406616
3162,2374.314854860306
3163,2375.109852552414
3164,2375.9388501644135
3165,2376.7268476486206
3166,2377.5128452777863
3167,2378.2928428649902
3168,2379.105840444565
3169,2379.873838186264
3170,2380.6508359909058
3171,2381.453833580017
3172,2382.2818310260773
3173,2383.056828737259
3174,2383.825826406479
3175,2384.605823993683
3176,2385.409821510315
3177,2386.175819158554
3178,2386.9588170051575
3179,2387.767814397812
3180,2388.5448122024536
3181,2389.3108098506927
3182,2390.0718076229095
3183,2390.844805240631
3184,2391.605803012848
3185,2392.358800649643
3186,2393.1227984428406
3187,2393.925796031952
3188,2394.724793434143
3189,2395.4887912273407
3190,2396.2687888145447
3191,2397.0697865486145
3192,2397.840784072876
3193,2398.598781824112
3194,2399.355779647827
3195,2400.1067774295807
3196,2400.891774892807
3197,2401.640772819519
3198,2402.404770374298
3199,2403.1827681064606
3200,2403.9537658691406
3201,2404.7017633914948
3202,2405.4547612667084
3203,2406.2077589035034
3204,2406.9627566337585
3205,2407.7307543754578
3206,2408.5107519626617
3207,2409.2987496852875
3208,2410.058747291565
3209,2410.8307449817657
3210,2411.6157426834106
3211,2412.4127402305603
3212,2413.186738014221
3213,2413.9607355594635
3214,2414.7207334041595
3215,2415.4877309799194
3216,2416.2597286701202
3217,2417.0157265663147
3218,2417.754724264145
3219,2418.5027220249176
3220,2419.291719675064
3221,2420.0267174243927
3222,2420.7737152576447
3223,2421.528712749481
3224,2422.327710390091
3225,2423.082708120346
3226,2423.869705915451
3227,2424.66370344162
3228,2425.466701030731
3229,2426.225698709488
3230,2427.007696390152
3231,2427.8056938648224
3232,2428.5816917419434
3233,2429.349689245224
3234,2430.131686925888
3235,2430.938684463501
3236,2431.710682153702
3237,2432.491679906845
3238,2433.27267742157
3239,2434.053675174713
3240,2434.81467294693
3241,2435.5766706466675
3242,2436.301668405533
3243,2437.0366661548615
3244,2437.838663816452
3245,2438.6166615486145
3246,2439.386659145355
3247,2440.182656764984
3248,2440.976654291153
3249,2441.7436521053314
3250,2442.5216495990753
3251,2443.3306472301483
3252,2444.145644903183
3253,2444.9266424179077
3254,2445.726639986038
3255,2446.523637533188
3256,2447.3146352767944
3257,2448.1206328868866
3258,2448.9196305274963
3259,2449.705628156662
3260,2450.493625640869
3261,2451.2876234054565
3262,2452.0796208381653
3263,2452.8376185894012
3264,2453.6026163101196
3265,2454.4016139507294
3266,2455.160611629486
3267,2455.943609237671
3268,2456.736606836319
3269,2457.543604373932
3270,2458.3186020851135
3271,2459.0875997543335
3272,2459.8565974235535
3273,2460.6545951366425
3274,2461.429592847824
3275,2462.2065904140472
3276,2462.9955880641937
3277,2463.78458571434
3278,2464.554583311081
3279,2465.327581167221
3280,2466.104578733444
3281,2466.884576320648
3282,2467.656574010849
3283,2468.414571762085
3284,2469.1815695762634
3285,2469.9705669879913
3286,2470.731564760208
3287,2471.4845626354218
3288,2472.2405602931976
3289,2473.024557828903
3290,2473.777555704117
3291,2474.516553401947
3292,2475.2535512447357
3293,2475.9985489845276
3294,2476.728546857834
3295,2477.459544658661
3296,2478.222542285919
3297,2478.951539993286
3298,2479.6915378570557
3299,2480.440535545349
3300,2481.2575330734253
3301,2482.0155308246613
3302,2482.789528608322
3303,2483.593526124954
3304,2484.4075236320496
3305,2485.194521188736
3306,2485.9805188179016
3307,2486.7665164470673
3308,2487.5735142230988
3309,2488.350511789322
3310,2489.132509469986
3311,2489.9325070381165
3312,2490.718504667282
3313,2491.4835023880005
3314,2492.243499994278
3315,2493.003497838974
3316,2493.7634954452515
3317,2494.517493247986
3318,2495.2654910087585
3319,2496.0234887599945
3320,2496.8664860725403
3321,2497.6334838867188
3322,2498.3904814720154
3323,2499.1154794692993
3324,2499.847477197647
3325,2500.6244747638702
3326,2501.404472589493
3327,2502.1774702072144
3328,2502.938467979431
3329,2503.695465564728
3330,2504.4424633979797
3331,2505.1934611797333
3332,2505.9484589099884
3333,2506.730456352234
3334,2507.5024540424347
3335,2508.2794518470764
3336,2509.0244495868683
3337,2509.758447408676
3338,2510.4824452400208
3339,2511.21844291687
3340,2511.9644408226013
3341,2512.713438510895
3342,2513.4594361782074
3343,2514.2004339694977
3344,2514.949431657791
3345,2515.7004294395447
3346,2516.4374272823334
3347,2517.1684250831604
3348,2517.8854229450226
3349,2518.5904207229614
3350,2519.2974185943604
3351,2519.999416589737
3352,2520.7364144325256
3353,2521.447412252426
3354,2522.1674098968506
3355,2522.923407793045
3356,2523.638405561447
3357,2524.3734033107758
3358,2525.1074011325836
3359,2525.8603990077972
3360,2526.6233966350555
3361,2527.412394285202
3362,2528.2493917942047
3363,2529.076389312744
3364,2529.880386829376
3365,2530.6833844184875
3366,2531.4273822307587
3367,2532.1693799495697
3368,2532.9013776779175
3369,2533.6323754787445
3370,2534.380373239517
3371,2535.116371154785
3372,2535.8493688106537
3373,2536.6183664798737
3374,2537.3523643016815
3375,2538.100362062454
3376,2538.835359811783
3377,2539.600357532501
3378,2540.345355272293
3379,2541.0853531360626
3380,2541.824350833893
3381,2542.554348707199
3382,2543.2783465385437
3383,2544.033344268799
3384,2544.7433421611786
3385,2545.476339817047
3386,2546.2003376483917
3387,2546.917335510254
3388,2547.6423332691193
3389,2548.3623311519623
3390,2549.059329032898
3391,2549.753326892853
3392,2550.4363248348236
3393,2551.1103229522705
3394,2551.8003208637238
3395,2552.504318714142
3396,2553.2503163814545
3397,2553.9753143787384
3398,2554.678312063217
3399,2555.4023098945618
3400,2556.1033079624176
3401,2556.79030585289
3402,2557.4883036613464
3403,2558.188301563263
3404,2558.8892993927
3405,2559.614297389984
3406,2560.373295068741
3407,2561.1302926540375
3408,2561.8612904548645
3409,2562.6322882175446
3410,2563.399286031723
3411,2564.144283771515
3412,2564.9032814502716
3413,2565.657279253006
3414,2566.402276992798
3415,2567.1452746391296
3416,2567.8812725543976
3417,2568.606270313263
3418,2569.324268102646
3419,2570.0502660274506
3420,2570.78426361084
3421,2571.517261505127
3422,2572.23725938797
3423,2572.9752571582794
3424,2573.6792550086975
3425,2574.395252943039
3426,2575.0932507514954
3427,2575.801248550415
3428,2576.5172464847565
3429,2577.271244287491
3430,2578.024241924286
3431,2578.793239593506
3432,2579.535237312317
3433,2580.281235218048
3434,2581.035232782364
3435,2581.782230615616
3436,2582.5562283992767
3437,2583.270226240158
3438,2584.000223875046
3439,2584.722221851349
3440,2585.4432196617126
3441,2586.157217502594
3442,2586.873215198517
3443,2587.6212129592896
3444,2588.3672108650208
3445,2589.128208398819
3446,2589.862206220627
3447,2590.611204147339
3448,2591.3702018260956
3449,2592.0881996154785
3450,2592.8161973953247
3451,2593.5421953201294
3452,2594.2761929035187
3453,2595.0421907901764
3454,2595.7681884765625
3455,2596.5361862182617
3456,2597.312183856964
3457,2598.0891814231873
3458,2598.8781790733337
3459,2599.6261768341064
3460,2600.382174730301
3461,2601.156172275543
3462,2601.9291698932648
3463,2602.659167766571
3464,2603.401165485382
3465,2604.1391632556915
3466,2604.917160987854
3467,2605.6431589126587
3468,2606.376156568527
3469,2607.159154176712
3470,2607.930151939392
3471,2608.675149679184
3472,2609.4391474723816
3473,2610.229145050049
3474,2610.984142780304
3475,2611.752140522003
3476,2612.5251381397247
3477,2613.315135717392
3478,2614.0801334381104
3479,2614.8451311588287
3480,2615.6411287784576
3481,2616.404126405716
3482,2617.1631240844727
3483,2617.9051218032837
3484,2618.661119699478
3485,2619.444117307663
3486,2620.200114965439
3487,2620.9511127471924
3488,2621.700110435486
3489,2622.4961080551147
3490,2623.259105682373
3491,2624.0381033420563
3492,2624.831101179123
3493,2625.587098836899
3494,2626.369096517563
3495,2627.173094034195
3496,2627.964091539383
3497,2628.7390892505646
3498,2629.52508687973
3499,2630.302084684372
3500,2631.0590822696686
3501,2631.8010799884796
3502,2632.536077976227
3503,2633.288075685501
3504,2634.0630733966827
3505,2634.8140709400177
3506,2635.6050686836243
3507,2636.3810663223267
3508,2637.1480638980865
3509,2637.918061733246
3510,2638.692059278488
3511,2639.442057132721
3512,2640.221054792404
3513,2640.9920523166656
3514,2641.7530500888824
3515,2642.520047903061
3516,2643.2900454998016
3517,2644.05704331398
3518,2644.8250408172607
3519,2645.568038702011
3520,2646.3280363082886
3521,2647.081034183502
3522,2647.8170318603516
3523,2648.546029806137
3524,2649.289027452469
3525,2650.022025346756
3526,2650.751023054123
3527,2651.496020793915
3528,2652.2440185546875
3529,2652.99201631546
3530,2653.7520139217377
3531,2654.5520117282867
3532,2655.3080093860626
3533,2656.0520071983337
3534,2656.7950048446655
3535,2657.559002637863
3536,2658.2920002937317
3537,2659.045998096466
3538,2659.8219957351685
3539,2660.5939934253693
3540,2661.376991033554
3541,2662.135988712311
3542,2662.956986427307
3543,2663.787983894348
3544,2664.6159813404083
3545,2665.4199788570404
3546,2666.2149765491486
3547,2667.030974149704
3548,2667.812971830368
3549,2668.5969693660736
3550,2669.399966955185
3551,2670.214964389801
3552,2670.998962163925
3553,2671.754959821701
3554,2672.5039575099945
3555,2673.259955406189
3556,2674.017953157425
3557,2674.767950773239
3558,2675.520948410034
3559,2676.284946203232
3560,2677.0409438610077
3561,2677.7939417362213
3562,2678.550939321518
3563,2679.3529369831085
3564,2680.1209347248077
3565,2680.886932373047
3566,2681.6749300956726
3567,2682.480927467346
3568,2683.254925251007
3569,2684.042922973633
3570,2684.8369204998016
3571,2685.6219182014465
3572,2686.3879158496857
3573,2687.163913488388
3574,2687.9399111270905
3575,2688.698908805847
3576,2689.4659066200256
3577,2690.2439041137695
3578,2691.029901742935
3579,2691.7888996601105
3580,2692.5158972740173
3581,2693.2328951358795
3582,2694.0168929100037
3583,2694.828890323639
3584,2695.6848878860474
3585,2696.544885158539
3586,2697.390882730484
3587,2698.2048802375793
3588,2699.0118777751923
3589,2699.794875383377
3590,2700.592873096466
3591,2701.4088706970215
3592,2702.23086810112
3593,2703.0718655586243
3594,2703.919862985611
3595,2704.77686047554
3596,2705.645857810974
3597,2706.465855360031
3598,2707.3088529109955
3599,2708.130850315094
3600,2708.9348480701447
3601,2709.7778453826904
3602,2710.571843147278
3603,2711.362840652466
3604,2712.1628382205963
3605,2712.9448359012604
3606,2713.706833600998
3607,2714.462831258774
3608,2715.2648289203644
3609,2716.0278265476227
3610,2716.7988243103027
3611,2717.580821990967
3612,2718.3998193740845
3613,2719.174817085266
3614,2719.967814683914
3615,2720.7598123550415
3616,2721.5498099327087
3617,2722.3298077583313
3618,2723.145805120468
3619,2723.9508028030396
3620,2724.763800382614
3621,2725.556797981262
3622,2726.34779548645
3623,2727.1507930755615
3624,2727.969790697098
3625,2728.734788417816
3626,2729.5127861499786
3627,2730.289783716202
3628,2731.05278134346
3629,2731.818778991699
3630,2732.595776796341
3631,2733.4037742614746
3632,2734.1637721061707
3633,2734.9197697639465
3634,2735.682767391205
3635,2736.4627652168274
3636,2737.2257628440857
3637,2737.9727606773376
3638,2738.7287583351135
3639,2739.501755952835
3640,2740.3097536563873
3641,2741.1377511024475
3642,2741.91574883461
3643,2742.7077462673187
3644,2743.5207438468933
3645,2744.327741384506
3646,2745.099739074707
3647,2745.884736776352
3648,2746.6707344055176
3649,2747.4557321071625
3650,2748.2227296829224
3651,2749.0037274360657
3652,2749.8027250766754
3653,2750.559722661972
3654,2751.3057205677032
3655,2752.0417182445526
3656,2752.7677161693573
3657,2753.491714000702
3658,2754.203711748123
3659,2754.9157094955444
3660,2755.6237075328827
3661,2756.335705280304
3662,2757.053703069687
3663,2757.7637009620667
3664,2758.474698781967
3665,2759.1796967983246
3666,2759.8866946697235
3667,2760.595692396164
3668,2761.303690433502
3669,2762.0146882534027
3670,2762.7246861457825
3671,2763.435683965683
3672,2764.1376819610596
3673,2764.8476796150208
3674,2765.5596776008606
3675,2766.262675523758
3676,2766.97767329216
3677,2767.6856710910797
3678,2768.385668992996
3679,2769.082666873932
3680,2769.774664878845
3681,2770.4516627788544
3682,2771.126660823822
3683,2771.795658826828
3684,2772.467656850815
3685,2773.1896545886993
3686,2773.9226524829865
3687,2774.6506502628326
3688,2775.391648054123
3689,2776.109645843506
3690,2776.838643550873
3691,2777.5736413002014
3692,2778.323639154434
3693,2779.0886368751526
3694,2779.821634531021
3695,2780.5536324977875
3696,2781.2966301441193
3697,2782.0776278972626
3698,2782.8476254940033
3699,2783.619623184204
3700,2784.390620946884
3701,2785.151618719101
3702,2785.9116163253784
3703,2786.6786139011383
3704,2787.4706115722656
3705,2788.2586092948914
3706,2789.0226068496704
3707,2789.810604572296
3708,2790.5736021995544
3709,2791.340600013733
3710,2792.093597650528
3711,2792.829595565796
3712,2793.5805933475494
3713,2794.3635909557343
3714,2795.097588777542
3715,2795.8415863513947
3716,2796.6135840415955
3717,2797.340581893921
3718,2798.0805797576904
3719,2798.8195774555206
3720,2799.571575164795
3721,2800.3205728530884
3722,2801.070570707321
3723,2801.826568365097
3724,2802.6285660266876
3725,2803.377563714981
3726,2804.1235616207123
3727,2804.879559278488
3728,2805.640557050705
3729,2806.39155459404
3730,2807.1525523662567
3731,2807.904550075531
3732,2808.6425478458405
3733,2809.379545688629
3734,2810.1205434799194
3735,2810.858541250229
3736,2811.599539041519
3737,2812.3615367412567
3738,2813.1335344314575
3739,2813.8785321712494
3740,2814.6365299224854
3741,2815.4185276031494
3742,2816.1845252513885
3743,2816.947522878647
3744,2817.7105207443237
3745,2818.468518257141
3746,2819.231516122818
3747,2819.9755136966705
3748,2820.7255115509033
3749,2821.48450922966
3750,2822.244507074356
3751,2823.0415046215057
3752,2823.7995023727417
3753,2824.5564999580383
3754,2825.318497657776
3755,2826.086495399475
3756,2826.8494930267334
3757,2827.599490880966
3758,2828.3594884872437
3759,2829.140486240387
3760,2829.8834838867188
3761,2830.624481678009
3762,2831.3704795837402
3763,2832.1354773044586
3764,2832.8884749412537
3765,2833.6414725780487
3766,2834.3914704322815
3767,2835.1354682445526
3768,2835.886466026306
3769,2836.645463705063
3770,2837.3964614868164
3771,2838.131459236145
3772,2838.863456964493
3773,2839.604454755783
3774,2840.3324525356293
3775,2841.061450242996
3776,2841.7884480953217
3777,2842.5334458351135
3778,2843.252443790436
3779,2843.972441673279
3780,2844.7044394016266
3781,2845.418437242508
3782,2846.138435125351
3783,2846.855432987213
3784,2847.5884306430817
3785,2848.3254284858704
3786,2849.051426410675
3787,2849.7634241580963
3788,2850.4914219379425
3789,2851.243419647217
3790,2852.000417470932
3791,2852.761415243149
3792,2853.5284128189087
3793,2854.2644107341766
3794,2854.9934084415436
3795,2855.734406232834
3796,2856.478404045105
3797,2857.209401845932
3798,2857.9423995018005
3799,2858.685397386551
3800,2859.45339512825
3801,2860.209392786026
3802,2860.977390527725
3803,2861.7653880119324
3804,2862.5503857135773
3805,2863.335383415222
3806,2864.0983810424805
3807,2864.876378774643
3808,2865.6463763713837
3809,2866.401374101639
3810,2867.1623718738556
3811,2867.9433693885803
3812,2868.728367090225
3813,2869.486364841461
3814,2870.2123625278473
3815,2870.9593603610992
3816,2871.712358236313
3817,2872.464355945587
3818,2873.206353664398
3819,2873.946351289749
3820,2874.6813492774963
3821,2875.4063470363617
3822,2876.132344722748
3823,2876.8563425540924
3824,2877.5783405303955
3825,2878.3183381557465
3826,2879.0693359375
3827,2879.843333721161
3828,2880.6293313503265
3829,2881.3983290195465
3830,2882.1753265857697
3831,2882.9503242969513
3832,2883.736321926117
3833,2884.5113196372986
3834,2885.265317440033
3835,2886.0233149528503
3836,2886.795312643051
3837,2887.564310312271
3838,2888.3233082294464
3839,2889.056305885315
3840,2889.765303850174
3841,2890.488301515579
3842,2891.29029917717
3843,2892.0862967967987
3844,2892.8852944374084
3845,2893.693291902542
3846,2894.503289461136
3847,2895.3422870635986
3848,2896.1882843971252
3849,2897.041281938553
3850,2897.844279527664
3851,2898.6452770233154
3852,2899.455274581909
3853,2900.2592720985413
3854,2901.05526971817
3855,2901.851267337799
3856,2902.6312651634216
3857,2903.4272627830505
3858,2904.1722605228424
3859,2904.920258283615
3860,2905.6722559928894
3861,2906.423253774643
3862,2907.1832513809204
3863,2907.942249059677
3864,2908.700246810913
3865,2909.4762444496155
3866,2910.2482421398163
3867,2910.996239900589
3868,2911.7662374973297
3869,2912.5572352409363
3870,2913.327232837677
3871,2914.0862305164337
3872,2914.8572282791138
3873,2915.6402258872986
3874,2916.4712233543396
3875,2917.2882208824158
3876,2918.0792186260223
3877,2918.916216135025
3878,2919.709213733673
3879,2920.4852113723755
3880,2921.255208969116
3881,2922.030206680298
3882,2922.820204257965
3883,2923.586201906204
3884,2924.34419965744
3885,2925.1241974830627
3886,2925.922194957733
3887,2926.6791927814484
3888,2927.4451904296875
3889,2928.194188117981
3890,2928.917186021805
3891,2929.64018368721
3892,2930.3551816940308
3893,2931.0901794433594
3894,2931.830177307129
3895,2932.5711748600006
3896,2933.3151726722717
3897,2934.0641705989838
3898,2934.812168121338
3899,2935.5641660690308
3900,2936.313163757324
3901,2937.0791614055634
3902,2937.83815908432
3903,2938.580156803131
3904,2939.313154697418
3905,2940.0461525917053
3906,2940.7851502895355
3907,2941.5111479759216
3908,2942.238145828247
3909,2942.96014380455
3910,2943.692141532898
3911,2944.4411392211914
3912,2945.1711370944977
3913,2945.904134750366
3914,2946.6501326560974
3915,2947.412130355835
3916,2948.16512799263
3917,2948.8941259384155
3918,2949.6341235637665
3919,2950.3731215000153
3920,2951.1091191768646
3921,2951.863116979599
3922,2952.5841147899628
3923,2953.3131124973297
3924,2954.045110464096
3925,2954.7701082229614
3926,2955.480106115341
3927,2956.188103914261
3928,2956.8981018066406
3929,2957.611099720001
3930,2958.3340973854065
3931,2959.061095237732
3932,2959.803092956543
3933,2960.5400907993317
3934,2961.279088497162
3935,2961.999086380005
3936,2962.7200841903687
3937,2963.426082134247
3938,2964.1260800361633
3939,2964.8140778541565
3940,2965.5090758800507
3941,2966.2040736675262
3942,2966.9330716133118
3943,2967.6410694122314
3944,2968.400067090988
3945,2969.1440649032593
3946,2969.852062702179
3947,2970.569060564041
3948,2971.2750585079193
3949,2971.980056285858
3950,2972.692054271698
3951,2973.3950521945953
3952,2974.1070499420166
3953,2974.823047876358
3954,2975.5560455322266
3955,2976.261043548584
3956,2976.9590413570404
3957,2977.659039258957
3958,2978.3450372219086
3959,2979.024035215378
3960,2979.701033115387
3961,2980.384031057358
3962,2981.0700290203094
3963,2981.7530269622803
3964,2982.4450249671936
3965,2983.1600227355957
3966,2983.8920204639435
3967,2984.630018234253
3968,2985.341016292572
3969,2986.0790140628815
3970,2986.838011741638
3971,2987.573009490967
3972,2988.2950072288513
3973,2989.019005060196
3974,2989.7400028705597
3975,2990.454000711441
3976,2991.1539986133575
3977,2991.864996433258
3978,2992.5729944705963
3979,2993.267992258072
3980,2993.952990293503
3981,2994.6489882469177
3982,2995.3329861164093
3983,2996.0359840393066
3984,2996.7269818782806
3985,2997.4359798431396
3986,2998.1679775714874
3987,2998.931975364685
3988,2999.6919729709625
3989,3000.432970762253
3990,3001.1809685230255
3991,3001.9509661197662
3992,3002.708963871002
3993,3003.445961713791
3994,3004.175959587097
3995,3004.9019572734833
3996,3005.622955083847
3997,3006.3509528636932
3998,3007.0669507980347
3999,3007.7759487628937
4000,3008.47594666481
4001,3009.167944431305
4002,3009.8549423217773
4003,3010.556940317154
4004,3011.271938085556
4005,3012.0089359283447
4006,3012.7309336662292
4007,3013.4609315395355
4008,3014.1969294548035
4009,3014.8969271183014
4010,3015.596925020218
4011,3016.292922973633
4012,3016.9919209480286
4013,3017.6849188804626
4014,3018.406916618347
4015,3019.132914543152
4016,3019.8669123649597
4017,3020.6259100437164
4018,3021.3869078159332
4019,3022.131905555725
4020,3022.88490319252
4021,3023.6619007587433
4022,3024.4398984909058
4023,3025.188896179199
4024,3025.941894054413
4025,3026.681891679764
4026,3027.422889471054
4027,3028.18088722229
4028,3028.8998851776123
4029,3029.647882938385
4030,3030.397880554199
4031,3031.1398782730103
4032,3031.8838760852814
4033,3032.629873752594
4034,3033.3668715953827
4035,3034.107869386673
4036,3034.8718671798706
4037,3035.604864835739
4038,3036.343862771988
4039,3037.093860387802
4040,3037.853858232498
4041,3038.611855983734
4042,3039.3728535175323
4043,3040.125851392746
4044,3040.8828489780426
4045,3041.6688466072083
4046,3042.4238443374634
4047,3043.176842212677
4048,3043.9288399219513
4049,3044.6818375587463
4050,3045.426835298538
4051,3046.160833120346
4052,3046.891830921173
4053,3047.6318287849426
4054,3048.405826330185
4055,3049.189824104309
4056,3049.953821659088
4057,3050.7188193798065
4058,3051.4928171634674
4059,3052.263814687729
4060,3053.0378124713898
4061,3053.840810060501
4062,3054.652807712555
4063,3055.4488050937653
4064,3056.2318029403687
4065,3057.015800476074
4066,3057.8547978401184
4067,3058.6877954006195
4068,3059.479793071747
4069,3060.2647907733917
4070,3061.046788454056
4071,3061.833786010742
4072,3062.6107835769653
4073,3063.387781381607
4074,3064.189778804779
4075,3064.9677765369415
4076,3065.7397742271423
4077,3066.5357718467712
4078,3067.345769405365
4079,3068.1197669506073
4080,3068.908764600754
4081,3069.735762119293
4082,3070.5567598342896
4083,3071.340757369995
4084,3072.1167550086975
4085,3072.897752761841
4086,3073.671750307083
4087,3074.459748029709
4088,3075.276745557785
4089,3076.0957431793213
4090,3076.881740808487
4091,3077.6767382621765
4092,3078.4887359142303
4093,3079.3147332668304
4094,3080.1157310009003
4095,3080.949728488922
4096,3081.756726026535
4097,3082.5457236766815
4098,3083.3287212848663
4099,3084.1317188739777
4100,3084.896716594696
4101,3085.679714202881
4102,3086.501711845398
4103,3087.300709247589
4104,3088.0757069587708
4105,3088.831704854965
4106,3089.6037023067474
4107,3090.3937001228333
4108,3091.1686975955963
4109,3091.9336953163147
4110,3092.7156929969788
4111,3093.5276906490326
4112,3094.298688173294
4113,3095.0676860809326
4114,3095.8456835746765
4115,3096.6676812171936
4116,3097.4376788139343
4117,3098.196676492691
4118,3098.9506742954254
4119,3099.7216720581055
4120,3100.486669778824
4121,3101.261667251587
4122,3102.034665107727
4123,3102.804662704468
4124,3103.5516605377197
4125,3104.28865814209
4126,3105.018656015396
4127,3105.7536537647247
4128,3106.4986515045166
4129,3107.226649284363
4130,3107.9556472301483
4131,3108.6916449069977
4132,3109.4736425876617
4133,3110.244640350342
4134,3110.9956381320953
4135,3111.757635831833
4136,3112.518633365631
4137,3113.2696311473846
4138,3114.0136289596558
4139,3114.743626832962
4140,3115.486624479294
4141,3116.256622314453
4142,3117.0306198596954
4143,3117.8246173858643
4144,3118.652615070343
4145,3119.4386126995087
4146,3120.217610359192
4147,3120.9986078739166
4148,3121.7966055870056
4149,3122.5876030921936
4150,3123.4106006622314
4151,3124.223598241806
4152,3125.006595849991
4153,3125.7815935611725
4154,3126.556591272354
4155,3127.376588821411
4156,3128.1935863494873
4157,3128.9785838127136
4158,3129.7505815029144
4159,3130.5585792064667
4160,3131.3665766716003
4161,3132.1395745277405
4162,3132.9325721263885
4163,3133.7375695705414
4164,3134.513567209244
4165,3135.2935650348663
4166,3136.0815625190735
4167,3136.908560037613
4168,3137.739557504654
4169,3138.585555076599
4170,3139.3995525836945
4171,3140.2055501937866
4172,3141.018547773361
4173,3141.826545238495
4174,3142.6315429210663
4175,3143.4325404167175
4176,3144.207538127899
4177,3144.9795358181
4178,3145.7425334453583
4179,3146.5375311374664
4180,3147.2905287742615
4181,3148.054526567459
4182,3148.8305242061615
4183,3149.6375217437744
4184,3150.442519426346
4185,3151.2155170440674
4186,3151.9735147953033
4187,3152.7315125465393
4188,3153.5165100097656
4189,3154.2715077400208
4190,3155.0435054302216
4191,3155.8395030498505
4192,3156.628500699997
4193,3157.4014983177185
4194,3158.1784961223602
4195,3158.980493545532
4196,3159.795491218567
4197,3160.623488664627
4198,3161.4024863243103
4199,3162.1714839935303
4200,3162.922481775284
4201,3163.6784794330597
4202,3164.4414772987366
4203,3165.18847489357
4204,3165.9024727344513
4205,3166.6064705848694
4206,3167.3314685821533
4207,3168.0684661865234
4208,3168.835464000702
4209,3169.5994617938995
4210,3170.3414595127106
4211,3171.0864572525024
4212,3171.811455011368
4213,3172.53045296669
4214,3173.2634506225586
4215,3174.041448354721
4216,3174.8194460868835
4217,3175.614443540573
4218,3176.374441385269
4219,3177.128438949585
4220,3177.8814368247986
4221,3178.660434484482
4222,3179.4594321250916
4223,3180.2784295082092
4224,3181.0984270572662
4225,3181.8774247169495
4226,3182.6604223251343
4227,3183.483419895172
4228,3184.330417394638
4229,3185.1714148521423
4230,3186.016412258148
4231,3186.893409729004
4232,3187.781406879425
4233,3188.682404279709
4234,3189.5554015636444
4235,3190.421399116516
4236,3191.269396543503
4237,3192.084393978119
4238,3192.928391456604
4239,3193.7363891601562
4240,3194.533386707306
4241,3195.3173842430115
4242,3196.0723819732666
4243,3196.880379676819
4244,3197.6863770484924
4245,3198.477374792099
4246,3199.2643723487854
4247,3200.0573699474335
4248,3200.8883674144745
4249,3201.730365037918
4250,3202.575362443924
4251,3203.421360015869
4252,3204.2213575839996
4253,3205.024355173111
4254,3205.8113527297974
4255,3206.5903503894806
4256,3207.4133479595184
4257,3208.2363455295563
4258,3209.104342699051
4259,3209.9973402023315
4260,3210.9233372211456
4261,3211.830334663391
4262,3212.712332010269
4263,3213.56932926178
4264,3214.391326904297
4265,3215.197324514389
4266,3216.0513219833374
4267,3216.9093194007874
4268,3217.7623167037964
4269,3218.628314256668
4270,3219.45831155777
4271,3220.2653090953827
4272,3221.0783066749573
4273,3221.8813042640686
4274,3222.697301864624
4275,3223.555299282074
4276,3224.4112968444824
4277,3225.2692942619324
4278,3226.0922915935516
4279,3226.9012892246246
4280,3227.679286956787
4281,3228.421284675598
4282,3229.1702823638916
4283,3229.9282801151276
4284,3230.6762778759003
4285,3231.4932754039764
4286,3232.357272863388
4287,3233.242270231247
4288,3234.1122674942017
4289,3234.9762649536133
4290,3235.8252623081207
4291,3236.732259750366
4292,3237.561257123947
4293,3238.358254671097
4294,3239.1482524871826
4295,3239.9582500457764
4296,3240.8322472572327
4297,3241.638244867325
4298,3242.430242538452
4299,3243.250240087509
4300,3244.10923743248
4301,3244.9592349529266
4302,3245.773232460022
4303,3246.6262300014496
4304,3247.4952273368835
4305,3248.3722245693207
4306,3249.237221956253
4307,3250.0942194461823
4308,3250.952216863632
4309,3251.8472142219543
4310,3252.657211780548
4311,3253.462209224701
4312,3254.2772068977356
4313,3255.1302042007446
4314,3255.9682018756866
4315,3256.782199382782
4316,3257.6141967773438
4317,3258.4501943588257
4318,3259.277191877365
4319,3260.06018948555
4320,3260.8411870002747
4321,3261.620184659958
4322,3262.404182434082
4323,3263.208179950714
4324,3264.0401775836945
4325,3264.8201751708984
4326,3265.6051728725433
4327,3266.3951704502106
4328,3267.185168027878
4329,3267.9631657600403
4330,3268.749163389206
4331,3269.5581607818604
4332,3270.371158361435
4333,3271.1521561145782
4334,3271.938153743744
4335,3272.7611513137817
4336,3273.588148832321
4337,3274.3761463165283
4338,3275.186143875122
4339,3276.0051414966583
4340,3276.769139289856
4341,3277.546136856079
4342,3278.3221344947815
4343,3279.1311321258545
4344,3279.896129846573
4345,3280.6641273498535
4346,3281.4361250400543
4347,3282.210122823715
4348,3282.974120616913
4349,3283.7361183166504
4350,3284.498116016388
4351,3285.288113594055
4352,3286.045111179352
4353,3286.7961089611053
4354,3287.5501067638397
4355,3288.338104248047
4356,3289.130101919174
4357,3289.8870997428894
4358,3290.6510972976685
4359,3291.416095018387
4360,3292.1790928840637
4361,3292.9410905838013
4362,3293.67608833313
4363,3294.4090859889984
4364,3295.152083873749
4365,3295.9300816059113
4366,3296.686079263687
4367,3297.43407702446
4368,3298.170074701309
4369,3298.9120724201202
4370,3299.664070367813
4371,3300.406068086624
4372,3301.138065814972
4373,3301.8920636177063
4374,3302.677061319351
4375,3303.4190590381622
4376,3304.1800565719604
4377,3304.945054292679
4378,3305.714051961899
4379,3306.463049888611
4380,3307.2090475559235
4381,3307.984045267105
4382,3308.716042995453
4383,3309.438040971756
4384,3310.151038646698
4385,3310.8880364894867
4386,3311.651034116745
4387,3312.3920319080353
4388,3313.153029680252
4389,3313.936027288437
4390,3314.7120249271393
4391,3315.4540226459503
4392,3316.2130205631256
4393,3316.96301817894
4394,3317.7240159511566
4395,3318.5060136318207
4396,3319.309011220932
4397,3320.091008901596
4398,3320.8510065078735
4399,3321.614004135132
4400,3322.4020018577576
4401,3323.1869995594025
4402,3323.9419972896576
4403,3324.6969950199127
4404,3325.448992729187
4405,3326.236990213394
4406,3327.0369880199432
4407,3327.809985637665
4408,3328.5679833889008
4409,3329.314980983734
4410,3330.0609788894653
4411,3330.8109765052795
4412,3331.563974380493
4413,3332.3109719753265
4414,3333.062969684601
4415,3333.8409674167633
4416,3334.6219651699066
4417,3335.421962738037
4418,3336.1819603443146
4419,3336.9419581890106
4420,3337.7109558582306
4421,3338.499953508377
4422,3339.266951084137
4423,3340.0179488658905
4424,3340.7899465560913
4425,3341.5769441127777
4426,3342.331941843033
4427,3343.0849397182465
4428,3343.8389372825623
4429,3344.596935033798
4430,3345.366932630539
4431,3346.1119306087494
4432,3346.8489282131195
4433,3347.596925973892
4434,3348.370923757553
4435,3349.1229214668274
4436,3349.895919084549
4437,3350.6629168987274
4438,3351.4559144973755
4439,3352.2059121131897
4440,3352.949909925461
4441,3353.6819076538086
4442,3354.4309055805206
4443,3355.214903116226
4444,3355.9559009075165
4445,3356.7088985443115
4446,3357.4548964500427
4447,3358.204894065857
4448,3358.938891887665
4449,3359.6708896160126
4450,3360.410887479782
4451,3361.1708850860596
4452,3361.949882745743
4453,3362.7128806114197
4454,3363.463878393173
4455,3364.206876039505
4456,3364.9468739032745
4457,3365.6948716640472
4458,3366.44286942482
4459,3367.173867225647
4460,3367.902864933014
4461,3368.6388626098633
4462,3369.3978605270386
4463,3370.136858224869
4464,3370.8738560676575
4465,3371.6128537654877
4466,3372.3498516082764
4467,3373.1158492565155
4468,3373.8468470573425
4469,3374.576844930649
4470,3375.275842666626
4471,3375.976840734482
4472,3376.7588381767273
4473,3377.560835838318
4474,3378.404833316803
4475,3379.261830806732
4476,3380.0898282527924
4477,3380.9178256988525
4478,3381.7028234004974
4479,3382.472820997238
4480,3383.241818666458
4481,3383.991816520691
4482,3384.7558143138885
4483,3385.52881193161
4484,3386.335809469223
4485,3387.1348071098328
4486,3387.9548046588898
4487,3388.768802165985
4488,3389.616799592972
4489,3390.458796977997
4490,3391.288794517517
4491,3392.082792043686
4492,3392.879789829254
4493,3393.6937873363495
4494,3394.4887850284576
4495,3395.288782596588
4496,3396.084780216217
4497,3396.8877778053284
4498,3397.6617753505707
4499,3398.4317729473114
4500,3399.2027707099915
4501,3399.9737684726715
4502,3400.792765855789
4503,3401.6037635803223
4504,3402.4297609329224
4505,3403.236758708954
4506,3404.0467562675476
4507,3404.846753835678
4508,3405.701751232147
4509,3406.5157487392426
4510,3407.36474609375
4511,3408.170743703842
4512,3408.9927413463593
4513,3409.765738964081
4514,3410.5247366428375
4515,3411.297734260559
4516,3412.085731983185
4517,3412.8747296333313
4518,3413.6217272281647
4519,3414.37872505188
4520,3415.160722732544
4521,3415.9627203941345
4522,3416.7377178668976
4523,3417.504715681076
4524,3418.271713256836
4525,3419.056710958481
4526,3419.8177087306976
4527,3420.629706144333
4528,3421.426703929901
4529,3422.2117013931274
4530,3422.9686992168427
4531,3423.7266969680786
4532,3424.491694688797
4533,3425.258692264557
4534,3426.0576899051666
4535,3426.8026876449585
4536,3427.5576853752136
4537,3428.295683145523
4538,3429.02868103981
4539,3429.79567861557
4540,3430.539676427841
4541,3431.2886741161346
4542,3432.0326719284058
4543,3432.7796697616577
4544,3433.518667459488
4545,3434.2696652412415
4546,3435.050662755966
4547,3435.8016605377197
4548,3436.5606582164764
4549,3437.3206560611725
4550,3438.098653793335
4551,3438.8526513576508
4552,3439.6256489753723
4553,3440.4126467704773
4554,3441.1516444683075
4555,3441.902642250061
4556,3442.655639886856
4557,3443.414637565613
4558,3444.1836354732513
4559,3444.9526331424713
4560,3445.706630706787
4561,3446.464628458023
4562,3447.2106263637543
4563,3447.932624101639
4564,3448.649621963501
4565,3449.351619720459
4566,3450.0426177978516
4567,3450.7336156368256
4568,3451.4216136932373
4569,3452.124611377716
4570,3452.8436093330383
4571,3453.58660697937
4572,3454.295604944229
4573,3455.029602766037
4574,3455.782600402832
4575,3456.500598192215
4576,3457.2375960350037
4577,3457.981593847275
4578,3458.744591474533
4579,3459.5205891132355
4580,3460.314586877823
4581,3461.0685844421387
4582,3461.8505821228027
4583,3462.6145799160004
4584,3463.3715777397156
4585,3464.1165754795074
4586,3464.846573114395
4587,3465.5785710811615
4588,3466.3015687465668
4589,3467.018566608429
4590,3467.7445645332336
4591,3468.4745621681213
4592,3469.227560043335
4593,3470.0085575580597
4594,3470.7455554008484
4595,3471.493553161621
4596,3472.2445509433746
4597,3472.9795486927032
4598,3473.725546360016
4599,3474.4655442237854
4600,3475.224541902542
4601,3475.9865396022797
4602,3476.718537569046
4603,3477.4665353298187
4604,3478.205533027649
4605,3478.945530653
4606,3479.678528547287
4607,3480.4295263290405
4608,3481.1855239868164
4609,3481.9565217494965
4610,3482.7235193252563
4611,3483.44451713562
4612,3484.180515050888
4613,3484.8915128707886
4614,3485.5965106487274
4615,3486.320508480072
4616,3487.066506385803
4617,3487.814504146576
4618,3488.5575017929077
4619,3489.3184995651245
4620,3490.094497203827
4621,3490.8804948329926
4622,3491.7164924144745
4623,3492.5884897708893
4624,3493.393487215042
4625,3494.181484937668
4626,3494.9664826393127
4627,3495.7614800930023
4628,3496.5684776306152
4629,3497.3854751586914
4630,3498.1704728603363
4631,3498.966470479965
4632,3499.775468111038
4633,3500.5734655857086
4634,3501.3854632377625
4635,3502.209460735321
4636,3503.0444581508636
4637,3503.846455812454
4638,3504.669453382492
4639,3505.4944508075714
4640,3506.2924485206604
4641,3507.0974459648132
4642,3507.9434435367584
4643,3508.730441093445
4644,3509.5134387016296
4645,3510.3234362602234
4646,3511.1544337272644
4647,3511.94043135643
4648,3512.7434289455414
4649,3513.583426475525
4650,3514.392424106598
4651,3515.1954216957092
4652,3516.040419101715
4653,3516.8484168052673
4654,3517.6444141864777
4655,3518.4774117469788
4656,3519.3404092788696
4657,3520.153406858444
4658,3520.9654042720795
4659,3521.7884018421173
4660,3522.5863993167877
4661,3523.372397184372
4662,3524.1723947525024
4663,3524.9623923301697
4664,3525.7463898658752
4665,3526.55938744545
4666,3527.351385116577
4667,3528.1243827342987
4668,3528.9123804569244
4669,3529.7163779735565
4670,3530.468375682831
4671,3531.225373506546
4672,3532.00737118721
4673,3532.8193686008453
4674,3533.5603663921356
4675,3534.309364080429
4676,3535.078361749649
4677,3535.8433594703674
4678,3536.599357366562
4679,3537.354355096817
4680,3538.153352499008
4681,3538.939350128174
4682,3539.696347951889
4683,3540.4663455486298
4684,3541.2533433437347
4685,3542.0553407669067
4686,3542.8003385066986
4687,3543.578336238861
4688,3544.337333917618
4689,3545.089331626892
4690,3545.8513293266296
4691,3546.6063270568848
4692,3547.403324842453
4693,3548.157322406769
4694,3548.9183201789856
4695,3549.707317829132
4696,3550.4963154792786
4697,3551.250313282013
4698,3552.0073108673096
4699,3552.764308691025
4700,3553.538306236267
4701,3554.299304008484
4702,3555.0773017406464
4703,3555.845299243927
4704,3556.627296924591
4705,3557.376294851303
4706,3558.1482923030853
4707,3558.9292900562286
4708,3559.7042877674103
4709,3560.476285457611
4710,3561.2622830867767
4711,3562.1002805233
4712,3562.8922781944275
4713,3563.676275730133
4714,3564.460273504257
4715,3565.2582709789276
4716,3566.0302686691284
4717,3566.7852663993835
4718,3567.5332641601562
4719,3568.291261911392
4720,3569.038259744644
4721,3569.769257545471
4722,3570.4892551898956
4723,3571.2332530021667
4724,3572.0072507858276
4725,3572.7422485351562
4726,3573.4832463264465
4727,3574.2392439842224
4728,3574.993241786957
4729,3575.743239402771
4730,3576.4992372989655
4731,3577.2742347717285
4732,3578.0312325954437
4733,3578.7952303886414
4734,3579.5642280578613
4735,3580.3282256126404
4736,3581.104223251343
4737,3581.8552210330963
4738,3582.6372187137604
4739,3583.4192163944244
4740,3584.1882140636444
4741,3584.9672117233276
4742,3585.7762093544006
4743,3586.563206911087
4744,3587.329204559326
4745,3588.0842022895813
4746,3588.8641998767853
4747,3589.6841974258423
4748,3590.4551951885223
4749,3591.2211928367615
4750,3592.0381903648376
4751,3592.819188117981
4752,3593.5951857566833
4753,3594.340183496475
4754,3595.0951812267303
4755,3595.8931789398193
4756,3596.690176486969
4757,3597.5011739730835
4758,3598.2841715812683
4759,3599.083169221878
4760,3599.8841667175293
4761,3600.7061643600464
4762,3601.503161907196
4763,3602.3081595897675
4764,3603.14315700531
4765,3603.938154697418
4766,3604.734152317047
4767,3605.5481498241425
4768,3606.3951473236084
4769,3607.2101447582245
4770,3608.0171422958374
4771,3608.8691396713257
4772,3609.699137210846
4773,3610.494134902954
4774,3611.2781324386597
4775,3612.0661301612854
4776,3612.874127626419
4777,3613.656125307083
4778,3614.439122915268
4779,3615.191120862961
4780,3615.944118499756
4781,3616.7171161174774
4782,3617.527113676071
4783,3618.288111448288
4784,3619.0991089344025
4785,3619.9291064739227
4786,3620.7521040439606
4787,3621.541101694107
4788,3622.334099292755
4789,3623.143096923828
4790,3623.9380943775177
4791,3624.719092130661
4792,3625.5030896663666
4793,3626.2800874710083
4794,3627.0290851593018
4795,3627.8010828495026
4796,3628.553080558777
4797,3629.297078371048
4798,3630.04207611084
4799,3630.789073705673
4800,3631.5780713558197
4801,3632.37806892395
4802,3633.1470668315887
4803,3633.9280643463135
4804,3634.730062007904
4805,3635.5200595855713
4806,3636.2750573158264
4807,3637.029055118561
4808,3637.811052799225
4809,3638.5710504055023
4810,3639.3250482082367
4811,3640.0680458545685
4812,3640.8640434741974
4813,3641.6320412158966
4814,3642.392038822174
4815,3643.1570365428925
4816,3643.9470341205597
4817,3644.706032037735
4818,3645.4770295619965
4819,3646.244027376175
4820,3647.048024892807
4821,3647.815022468567
4822,3648.6220202445984
4823,3649.414017677307
4824,3650.22501540184
4825,3651.0360128879547
4826,3651.8160104751587
4827,3652.610008239746
4828,3653.436005592346
4829,3654.267003059387
4830,3655.057000875473
4831,3655.8539984226227
4832,3656.6619958877563
4833,3657.4599936008453
4834,3658.2509911060333
4835,3659.0429887771606
4836,3659.8649864196777
4837,3660.6559839248657
4838,3661.447981595993
4839,3662.254979133606
4840,3663.0809767246246
4841,3663.875974178314
4842,3664.6839718818665
4843,3665.508969306946
4844,3666.328966856003
4845,3667.1179645061493
4846,3667.954962015152
4847,3668.761959552765
4848,3669.5759570598602
4849,3670.3819546699524
4850,3671.193952322006
4851,3672.0109498500824
4852,3672.8229472637177
4853,3673.612944841385
4854,3674.3959426879883
4855,3675.200940132141
4856,3675.999937772751
4857,3676.7759354114532
4858,3677.53693318367
4859,3678.3049309253693
4860,3679.0949285030365
4861,3679.867926120758
4862,3680.6469237804413
4863,3681.4289214611053
4864,3682.206919193268
4865,3682.9659168720245
4866,3683.7439143657684
4867,3684.545912027359
4868,3685.322909593582
4869,3686.082907438278
4870,3686.8489050865173
4871,3687.618902683258
4872,3688.3939003944397
4873,3689.163898229599
4874,3689.938895702362
4875,3690.749893426895
4876,3691.53289103508
4877,3692.2948887348175
4878,3693.04088640213
4879,3693.7518842220306
4880,3694.4658823013306
4881,3695.2468798160553
4882,3696.024877548218
4883,3696.822875022888
4884,3697.6118726730347
4885,3698.378870487213
4886,3699.1928679943085
4887,3700.0018656253815
4888,3700.8358631134033
4889,3701.6738605499268
4890,3702.5088579654694
4891,3703.3288555145264
4892,3704.1458530426025
4893,3704.9578506946564
4894,3705.76584815979
4895,3706.5908455848694
4896,3707.441843032837
4897,3708.3088405132294
4898,3709.156837940216
4899,3709.9748356342316
4900,3710.8028330802917
4901,3711.6128306388855
4902,3712.3908281326294
4903,3713.173825979233
4904,3713.9468235969543
4905,3714.7258212566376
4906,3715.515818834305
4907,3716.302816390991
4908,3717.0838141441345
4909,3717.881811618805
4910,3718.6968092918396
4911,3719.483806848526
4912,3720.26580452919
4913,3721.050802230835
4914,3721.843799829483
4915,3722.625797510147
4916,3723.407795190811
4917,3724.2027926445007
4918,3725.0307903289795
4919,3725.814787864685
4920,3726.6177854537964
4921,3727.419783115387
4922,3728.226780653
4923,3729.05477809906
4924,3729.8557755947113
4925,3730.665773153305
4926,3731.466770887375
4927,3732.2637684345245
4928,3733.064765930176
4929,3733.8657636642456
4930,3734.652761220932
4931,3735.4157588481903
4932,3736.1697566509247
4933,3736.9337544441223
4934,3737.6717522144318
4935,3738.4167499542236
4936,3739.157747745514
4937,3739.9417452812195
4938,3740.6887431144714
4939,3741.4467408657074
4940,3742.2127385139465
4941,3742.9847362041473
4942,3743.746733903885
4943,3744.4977316856384
4944,3745.278729200363
4945,3746.044727087021
4946,3746.8127245903015
4947,3747.6097223758698
4948,3748.4097199440002
4949,3749.1747176647186
4950,3749.9407153129578
4951,3750.708713054657
4952,3751.486710548401
4953,3752.2607083320618
4954,3753.0317058563232
4955,3753.8247034549713
4956,3754.663701057434
4957,3755.4556987285614
4958,3756.24769616127
4959,3757.0256938934326
4960,3757.7996916770935
4961,3758.570689201355
4962,3759.366686820984
4963,3760.147684574127
4964,3760.927682161331
4965,3761.7276797294617
4966,3762.497677564621
4967,3763.2816751003265
4968,3764.0486726760864
4969,3764.817670583725
4970,3765.5716681480408
4971,3766.320666074753
4972,3767.073663711548
4973,3767.8436613082886
4974,3768.605659008026
4975,3769.3516569137573
4976,3770.1026544570923
4977,3770.841652393341
4978,3771.584650039673
4979,3772.339647769928
4980,3773.0746455192566
4981,3773.815643310547
4982,3774.5556411743164
4983,3775.292639017105
4984,3776.0336368083954
4985,3776.7736344337463
4986,3777.521632194519
4987,3778.2596299648285
4988,3778.9936277866364
4989,3779.7296257019043
4990,3780.4706234931946
4991,3781.231621026993
4992,3781.975618839264
4993,3782.7156167030334
4994,3783.4566144943237
4995,3784.208612203598
4996,3784.950609922409
4997,3785.679607629776
4998,3786.383605480194
4999,3787.0876035690308
5000,3787.799601316452
5001,3788.5135991573334
5002,3789.2195971012115
5003,3789.9235949516296
5004,3790.6165928840637
5005,3791.3075907230377
5006,3792.0035886764526
5007,3792.7085864543915
5008,3793.435584306717
5009,3794.179582118988
5010,3794.9365799427032
5011,3795.698577642441
5012,3796.4285752773285
5013,3797.182573080063
5014,3797.9585707187653
5015,3798.709568500519
5016,3799.5065660476685
5017,3800.2585637569427
5018,3801.0055615901947
5019,3801.759559392929
5020,3802.5455570220947
5021,3803.294554710388
5022,3804.051552295685
5023,3804.843549966812
5024,3805.6325476169586
5025,3806.421545267105
5026,3807.228542804718
5027,3808.0255403518677
5028,3808.830538034439
5029,3809.597535610199
5030,3810.368533372879
5031,3811.152531147003
5032,3811.9345285892487
5033,3812.7595262527466
5034,3813.5285239219666
5035,3814.293521642685
5036,3815.0635192394257
5037,3815.833517074585
5038,3816.581514596939
5039,3817.336512327194
5040,3818.084510087967
5041,3818.833508014679
5042,3819.5815057754517
5043,3820.3465032577515
5044,3821.11150097847
5045,3821.8614988327026
5046,3822.612496614456
5047,3823.3994941711426
5048,3824.1844918727875
5049,3824.954489469528
5050,3825.73148727417
5051,3826.4854848384857
5052,3827.255482673645
5053,3828.0344803333282
5054,3828.8094778060913
5055,3829.57647562027
5056,3830.330473423004
5057,3831.0904710292816
5058,3831.8514688014984
5059,3832.6064665317535
5060,3833.355464220047
5061,3834.0964620113373
5062,3834.8234598636627
5063,3835.538457632065
5064,3836.2484555244446
5065,3836.9574534893036
5066,3837.6704511642456
5067,3838.372449159622
5068,3839.0864470005035
5069,3839.798444747925
5070,3840.5144426822662
5071,3841.262440443039
5072,3841.988438129425
5073,3842.778435945511
5074,3843.541433572769
5075,3844.275431394577
5076,3845.0054292678833
5077,3845.727427005768
5078,3846.453424692154
5079,3847.200422525406
5080,3847.9124205112457
5081,3848.6334183216095
5082,3849.3564159870148
5083,3850.0774137973785
5084,3850.820411682129
5085,3851.529409646988
5086,3852.241407394409
5087,3852.9394052028656
5088,3853.631403207779
5089,3854.3344011306763
5090,3855.0513989925385
5091,3855.754396915436
5092,3856.453394651413
5093,3857.149392604828
5094,3857.834390640259
5095,3858.527388572693
5096,3859.2223863601685
5097,3859.9373841285706
5098,3860.650382041931
5099,3861.349380016327
5100,3862.0633778572083
5101,3862.8043756484985
5102,3863.513373374939
5103,3864.2133712768555
5104,3864.9193692207336
5105,3865.6213672161102
5106,3866.326364994049
5107,3867.020362854004
5108,3867.7233607769012
5109,3868.4373586177826
5110,3869.1443564891815
5111,3869.830354452133
5112,3870.5223524570465
5113,3871.209350347519
5114,3871.8923482894897
5115,3872.5813462734222
5116,3873.2803440093994
5117,3873.9893419742584
5118,3874.716339826584
5119,3875.4623374938965
5120,3876.2173352241516
5121,3876.956332921982
5122,3877.689330816269
5123,3878.406328678131
5124,3879.126326560974
5125,3879.834324359894
5126,3880.549322128296
5127,3881.2733199596405
5128,3882.0153176784515
5129,3882.7243156433105
5130,3883.4443135261536
5131,3884.1673114299774
5132,3884.916309118271
5133,3885.645306825638
5134,3886.3663046360016
5135,3887.0873024463654
5136,3887.799300432205
5137,3888.5112981796265
5138,3889.2192962169647
5139,3889.9252939224243
5140,3890.610291957855
5141,3891.2892899513245
5142,3891.959287881851
5143,3892.6412858963013
5144,3893.333283662796
5145,3894.029281616211
5146,3894.722279548645
5147,3895.417277574539
5148,3896.0992753505707
5149,3896.7732734680176
5150,3897.446271419525
5151,3898.113269329071
5152,3898.796267271042
5153,3899.510265111923
5154,3900.2152631282806
5155,3900.9582607746124
5156,3901.7522583007812
5157,3902.589255809784
5158,3903.411253452301
