,ECG_peaks
0,0.0
1,0.7169973850250244
2,1.4349946975708008
3,2.162992000579834
4,2.8749895095825195
5,3.588986873626709
6,4.292984247207642
7,4.992981672286987
8,5.696979284286499
9,6.398976564407349
10,7.101974010467529
11,7.795971632003784
12,8.488969087600708
13,9.187966346740723
14,9.886963844299316
15,10.589961290359497
16,11.287958860397339
17,11.991956233978271
18,12.684953689575195
19,13.374951124191284
20,14.06294870376587
21,14.746946096420288
22,15.428943634033203
23,16.109941244125366
24,16.787938594818115
25,17.46493625640869
26,18.14193367958069
27,18.81693124771118
28,19.489928722381592
29,20.160926342010498
30,20.82892394065857
31,21.49092149734497
32,22.15191912651062
33,22.82391667366028
34,23.510914087295532
35,24.20091152191162
36,24.90290904045105
37,25.607906579971313
38,26.317903995513916
39,27.020901203155518
40,27.72589874267578
41,28.425896167755127
42,29.128893613815308
43,29.83389115333557
44,30.53488850593567
45,31.241885900497437
46,31.96488332748413
47,32.69488048553467
48,33.40987801551819
49,34.13587522506714
50,34.85787272453308
51,35.568870067596436
52,36.27886748313904
53,36.985864877700806
54,37.688862323760986
55,38.379859924316406
56,39.071857213974
57,39.75285482406616
58,40.42985224723816
59,41.112849950790405
60,41.802847385406494
61,42.499844789505005
62,43.20584225654602
63,43.916839599609375
64,44.62683701515198
65,45.33883452415466
66,46.05883169174194
67,46.78482913970947
68,47.511826515197754
69,48.244823694229126
70,48.9848210811615
71,49.71681833267212
72,50.43681573867798
73,51.155813217163086
74,51.874810457229614
75,52.595808029174805
76,53.3118052482605
77,54.018802642822266
78,54.74080014228821
79,55.459797382354736
80,56.1887948513031
81,56.91879224777222
82,57.65178942680359
83,58.37778687477112
84,59.09178423881531
85,59.79978156089783
86,60.507779121398926
87,61.215776443481445
88,61.93177390098572
89,62.64777112007141
90,63.37276864051819
91,64.10576581954956
92,64.8427631855011
93,65.57076048851013
94,66.3107578754425
95,67.05175518989563
96,67.79575252532959
97,68.53774976730347
98,69.26974701881409
99,69.99374437332153
100,70.72174167633057
101,71.45173907279968
102,72.18073630332947
103,72.90973377227783
104,73.62173104286194
105,74.33172845840454
106,75.04872584342957
107,75.77172327041626
108,76.50272059440613
109,77.233717918396
110,77.96171522140503
111,78.68971252441406
112,79.42770981788635
113,80.15570735931396
114,80.88070464134216
115,81.60570192337036
116,82.33669924736023
117,83.07069659233093
118,83.79569387435913
119,84.50669145584106
120,85.21468877792358
121,85.92368626594543
122,86.63568353652954
123,87.35268092155457
124,88.06267833709717
125,88.7736759185791
126,89.49067330360413
127,90.22067046165466
128,90.95566773414612
129,91.68366527557373
130,92.4146625995636
131,93.15465974807739
132,93.89565706253052
133,94.62465453147888
134,95.34465169906616
135,96.05464911460876
136,96.76964664459229
137,97.47264409065247
138,98.17264151573181
139,98.86163902282715
140,99.55263638496399
141,100.25263381004333
142,100.96563124656677
143,101.67962861061096
144,102.38262605667114
145,103.09062361717224
146,103.80662083625793
147,104.52861833572388
148,105.2366156578064
149,105.9376130104065
150,106.64961051940918
151,107.35460805892944
152,108.0526053905487
153,108.74360299110413
154,109.44060039520264
155,110.13759779930115
156,110.83559513092041
157,111.52559280395508
158,112.218590259552
159,112.9195876121521
160,113.63158512115479
161,114.33758234977722
162,115.04157996177673
163,115.75557732582092
164,116.47757458686829
165,117.1985719203949
166,117.91456937789917
167,118.62856674194336
168,119.34556412696838
169,120.06856155395508
170,120.78255891799927
171,121.48055624961853
172,122.18755388259888
173,122.89855122566223
174,123.60854864120483
175,124.30254602432251
176,125.00454354286194
177,125.71254086494446
178,126.42453837394714
179,127.12953567504883
180,127.83253312110901
181,128.53753066062927
182,129.24752807617188
183,129.95852541923523
184,130.66852283477783
185,131.3755202293396
186,132.08851766586304
187,132.80551505088806
188,133.53051233291626
189,134.24250984191895
190,134.96350717544556
191,135.68850445747375
192,136.42050170898438
193,137.14749908447266
194,137.8714964389801
195,138.6054937839508
196,139.33849120140076
197,140.0664885044098
198,140.79048585891724
199,141.5214831829071
200,142.2574803829193
201,143.00047779083252
202,143.7314751148224
203,144.45447254180908
204,145.18446969985962
205,145.90846705436707
206,146.62846446037292
207,147.33946204185486
208,148.06445932388306
209,148.790456533432
210,149.52145385742188
211,150.23745131492615
212,150.96344876289368
213,151.69944596290588
214,152.43444323539734
215,153.15644073486328
216,153.88143801689148
217,154.61743545532227
218,155.35243272781372
219,156.07442998886108
220,156.7954273223877
221,157.5254247188568
222,158.26042199134827
223,158.99041938781738
224,159.71241664886475
225,160.4344141483307
226,161.16241145133972
227,161.88640880584717
228,162.59540629386902
229,163.30640363693237
230,164.02040100097656
231,164.7373983860016
232,165.4453957080841
233,166.1553931236267
234,166.87539052963257
235,167.59638786315918
236,168.29638528823853
237,168.97438287734985
238,169.66538047790527
239,170.3453779220581
240,171.01237535476685
241,171.67737293243408
242,172.34337067604065
243,172.99636816978455
244,173.6483657360077
245,174.30136346817017
246,174.94736099243164
247,175.59435868263245
248,176.23835635185242
249,176.87935400009155
250,177.5203516483307
251,178.15634942054749
252,178.79534697532654
253,179.42334485054016
254,180.04934239387512
255,180.67334008216858
256,181.29333782196045
257,181.91733574867249
258,182.54333329200745
259,183.1673309803009
260,183.7903287410736
261,184.40932655334473
262,185.0293242931366
263,185.6413221359253
264,186.25631976127625
265,186.86631751060486
266,187.47831535339355
267,188.08931303024292
268,188.69931077957153
269,189.31430864334106
270,189.9223062992096
271,190.5343041419983
272,191.15830183029175
273,191.7802996635437
274,192.40229725837708
275,193.02729511260986
276,193.6592926979065
277,194.29629039764404
278,194.93528819084167
279,195.57828569412231
280,196.21628332138062
281,196.85828113555908
282,197.50827860832214
283,198.1652762889862
284,198.82427382469177
285,199.48427152633667
286,200.1512689590454
287,200.82726669311523
288,201.50626420974731
289,202.1742615699768
290,202.8382592201233
291,203.50725674629211
292,204.1802544593811
293,204.8532519340515
294,205.52524948120117
295,206.18824696540833
296,206.86124444007874
297,207.53624200820923
298,208.20123958587646
299,208.86823725700378
300,209.5372347831726
301,210.20423245429993
302,210.86223006248474
303,211.51822757720947
304,212.1742250919342
305,212.83322262763977
306,213.48922038078308
307,214.1472179889679
308,214.80621552467346
309,215.46821308135986
310,216.13621068000793
311,216.79620838165283
312,217.4552059173584
313,218.12220335006714
314,218.78720092773438
315,219.4451985359192
316,220.11319613456726
317,220.77719378471375
318,221.43019127845764
319,222.08618903160095
320,222.74618649482727
321,223.42818403244019
322,224.11318159103394
323,224.79017901420593
324,225.458176612854
325,226.11917424201965
326,226.77717185020447
327,227.43516945838928
328,228.09216713905334
329,228.75916457176208
330,229.42916202545166
331,230.10515975952148
332,230.79715704917908
333,231.50415444374084
334,232.2181520462036
335,232.93514943122864
336,233.6441466808319
337,234.34614419937134
338,235.04514169692993
339,235.74713897705078
340,236.45213651657104
341,237.1631338596344
342,237.85413146018982
343,238.54912877082825
344,239.24612617492676
345,239.9481236934662
346,240.64712119102478
347,241.3421187400818
348,242.04911613464355
349,242.75411343574524
350,243.47511076927185
351,244.18210816383362
352,244.88710570335388
353,245.60710310935974
354,246.32310032844543
355,247.0280978679657
356,247.73509526252747
357,248.44909262657166
358,249.16909003257751
359,249.87708735466003
360,250.58508491516113
361,251.3030822277069
362,252.03207969665527
363,252.75907683372498
364,253.45807433128357
365,254.16607189178467
366,254.8740692138672
367,255.56306672096252
368,256.2530641555786
369,256.9410617351532
370,257.63705921173096
371,258.3370566368103
372,259.0380539894104
373,259.7550513744354
374,260.47604870796204
375,261.209046125412
376,261.93504333496094
377,262.670040845871
378,263.41403794288635
379,264.1550352573395
380,264.8870327472687
381,265.62503004074097
382,266.3620271682739
383,267.09702467918396
384,267.81702184677124
385,268.5440192222595
386,269.27001667022705
387,269.98401403427124
388,270.702011346817
389,271.4290087223053
390,272.1550061702728
391,272.87600350379944
392,273.5910007953644
393,274.31799817085266
394,275.0439956188202
395,275.76599287986755
396,276.47399044036865
397,277.1869876384735
398,277.90698504447937
399,278.6249825954437
400,279.32397985458374
401,280.03897738456726
402,280.7609746456146
403,281.4939720630646
404,282.206969499588
405,282.92196679115295
406,283.64296412467957
407,284.37196159362793
408,285.0849587917328
409,285.78995633125305
410,286.5009536743164
411,287.2199511528015
412,287.9399485588074
413,288.6479458808899
414,289.3689432144165
415,290.1009404659271
416,290.8409378528595
417,291.55593514442444
418,292.27893257141113
419,293.0009300708771
420,293.7249274253845
421,294.4319248199463
422,295.13492226600647
423,295.84391951560974
424,296.55391693115234
425,297.2539143562317
426,297.94991183280945
427,298.65390944480896
428,299.3669066429138
429,300.0859041213989
430,300.79890155792236
431,301.51689887046814
432,302.2448961734772
433,302.9798934459686
434,303.7038908004761
435,304.42688822746277
436,305.1588854789734
437,305.88788294792175
438,306.62588024139404
439,307.34487748146057
440,308.07187485694885
441,308.80387234687805
442,309.52886962890625
443,310.24286699295044
444,310.9648644924164
445,311.6948616504669
446,312.4308590888977
447,313.1638562679291
448,313.88185381889343
449,314.6058511734009
450,315.32584834098816
451,316.0388457775116
452,316.73484325408936
453,317.4328408241272
454,318.1388382911682
455,318.85183548927307
456,319.56583285331726
457,320.2728304862976
458,320.98782777786255
459,321.7058250904083
460,322.4308226108551
461,323.1468198299408
462,323.85581731796265
463,324.5688147544861
464,325.2898120880127
465,326.0108094215393
466,326.71280694007874
467,327.4258043766022
468,328.1448016166687
469,328.87079906463623
470,329.5947964191437
471,330.3137936592102
472,331.04679107666016
473,331.79178833961487
474,332.52278566360474
475,333.24878311157227
476,333.9837803840637
477,334.72677755355835
478,335.46077489852905
479,336.18777227401733
480,336.9227695465088
481,337.6547667980194
482,338.39176416397095
483,339.12176156044006
484,339.84875893592834
485,340.5857563018799
486,341.32075357437134
487,342.0447509288788
488,342.77374815940857
489,343.49174547195435
490,344.2187428474426
491,344.94074034690857
492,345.6527376174927
493,346.3477351665497
494,347.0447325706482
495,347.7437300682068
496,348.4337275028229
497,349.1227250099182
498,349.80772256851196
499,350.4947199821472
500,351.1847174167633
501,351.8757150173187
502,352.5457124710083
503,353.2227101325989
504,353.88870763778687
505,354.56370520591736
506,355.23370265960693
507,355.91770029067993
508,356.60369777679443
509,357.28769516944885
510,357.97169280052185
511,358.65969014167786
512,359.34968757629395
513,360.0506851673126
514,360.7466826438904
515,361.44268012046814
516,362.144677400589
517,362.85067486763
518,363.545672416687
519,364.2466697692871
520,364.96366715431213
521,365.683664560318
522,366.4026620388031
523,367.10465931892395
524,367.8156566619873
525,368.5236542224884
526,369.2396516799927
527,369.9306490421295
528,370.616646528244
529,371.3106439113617
530,372.0256414413452
531,372.74463868141174
532,373.46163606643677
533,374.2116334438324
534,374.96863055229187
535,375.687628030777
536,376.4086253643036
537,377.14162278175354
538,377.8916199207306
539,378.642617225647
540,379.359614610672
541,380.0736119747162
542,380.7926094532013
543,381.53160667419434
544,382.27860403060913
545,383.0046012401581
546,383.71359872817993
547,384.4225962162018
548,385.1395936012268
549,385.87359070777893
550,386.60858821868896
551,387.32458543777466
552,388.02858304977417
553,388.74858021736145
554,389.47857761383057
555,390.21857500076294
556,390.9535722732544
557,391.67756962776184
558,392.40356707572937
559,393.1155643463135
560,393.82956171035767
561,394.5515592098236
562,395.27555656433105
563,396.00055384635925
564,396.7325510978699
565,397.4695484638214
566,398.2005457878113
567,398.9325430393219
568,399.6665403842926
569,400.4045376777649
570,401.1275351047516
571,401.83653259277344
572,402.5325300693512
573,403.2425274848938
574,403.967524766922
575,404.6995220184326
576,405.4115195274353
577,406.116516828537
578,406.8315143585205
579,407.5655117034912
580,408.3035089969635
581,409.03450632095337
582,409.7605035305023
583,410.4635009765625
584,411.16149854660034
585,411.8654959201813
586,412.5864932537079
587,413.3204905986786
588,414.0494878292084
589,414.76148533821106
590,415.45848274230957
591,416.1564803123474
592,416.8574776649475
593,417.5824749469757
594,418.30847239494324
595,419.0344696044922
596,419.74346709251404
597,420.4374644756317
598,421.1294620037079
599,421.8224594593048
600,422.54445695877075
601,423.26545429229736
602,423.9804515838623
603,424.6844491958618
604,425.3724465370178
605,426.0574440956116
606,426.741441488266
607,427.43343901634216
608,428.14543652534485
609,428.8544337749481
610,429.5594313144684
611,430.25542879104614
612,430.93942618370056
613,431.6374237537384
614,432.33342123031616
615,433.01941871643066
616,433.6974160671234
617,434.36441373825073
618,435.0284113883972
619,435.69340896606445
620,436.35540652275085
621,437.0274040699005
622,437.69940161705017
623,438.3663990497589
624,439.03639674186707
625,439.7143940925598
626,440.395391702652
627,441.0753891468048
628,441.756386756897
629,442.4413843154907
630,443.1313817501068
631,443.82237911224365
632,444.52337670326233
633,445.22737407684326
634,445.94337153434753
635,446.65136885643005
636,447.36536622047424
637,448.0703637599945
638,448.7733612060547
639,449.4703586101532
640,450.18535590171814
641,450.90235328674316
642,451.61635065078735
643,452.32434821128845
644,453.032345533371
645,453.75034284591675
646,454.4633402824402
647,455.17533779144287
648,455.8853352069855
649,456.5983326435089
650,457.3183298110962
651,458.03132724761963
652,458.7393248081207
653,459.45432209968567
654,460.1783194541931
655,460.8963167667389
656,461.6113142967224
657,462.33131170272827
658,463.05630898475647
659,463.77030634880066
660,464.4833037853241
661,465.1933012008667
662,465.9102985858917
663,466.6202960014343
664,467.3342933654785
665,468.04729080200195
666,468.76528811454773
667,469.48428559303284
668,470.2022829055786
669,470.924280166626
670,471.6482775211334
671,472.3772749900818
672,473.10327219963074
673,473.8272695541382
674,474.5422670841217
675,475.26926445961
676,475.98726177215576
677,476.69725918769836
678,477.4052565097809
679,478.1202540397644
680,478.8282513618469
681,479.5382487773895
682,480.2542462348938
683,480.97624349594116
684,481.70124077796936
685,482.4122383594513
686,483.12723565101624
687,483.8362331390381
688,484.5502305030823
689,485.24922800064087
690,485.95422530174255
691,486.65322279930115
692,487.3552203178406
693,488.061217546463
694,488.75521516799927
695,489.44921255111694
696,490.14421010017395
697,490.84120750427246
698,491.5372049808502
699,492.23720240592957
700,492.9321999549866
701,493.62819719314575
702,494.32919478416443
703,495.0321922302246
704,495.74718952178955
705,496.4761869907379
706,497.2221841812134
707,497.96018147468567
708,498.6881787776947
709,499.4181761741638
710,500.15517354011536
711,500.88817071914673
712,501.6121680736542
713,502.33716559410095
714,503.07316279411316
715,503.80916023254395
716,504.5391573905945
717,505.2691547870636
718,506.00615215301514
719,506.74014949798584
720,507.46114683151245
721,508.17514419555664
722,508.89614152908325
723,509.62113881111145
724,510.3431363105774
725,511.05413365364075
726,511.7651309967041
727,512.48712849617
728,513.2101256847382
729,513.9351232051849
730,514.6571204662323
731,515.380117893219
732,516.1091151237488
733,516.8421125411987
734,517.569109916687
735,518.3121070861816
736,519.0511045455933
737,519.7931017875671
738,520.524099111557
739,521.2600963115692
740,521.9910936355591
741,522.724091053009
742,523.4490883350372
743,524.1860857009888
744,524.9250829219818
745,525.6640803813934
746,526.3900775909424
747,527.1220750808716
748,527.8590722084045
749,528.6190695762634
750,529.378066778183
751,530.117063999176
752,530.8460614681244
753,531.5800588130951
754,532.3240559101105
755,533.0670533180237
756,533.7950506210327
757,534.5170478820801
758,535.2460453510284
759,535.9730427265167
760,536.6940400600433
761,537.4110374450684
762,538.1380348205566
763,538.8690321445465
764,539.6200294494629
765,540.3580267429352
766,541.0940239429474
767,541.8420212268829
768,542.6010184288025
769,543.3540155887604
770,544.1010129451752
771,544.8330101966858
772,545.5800075531006
773,546.3180048465729
774,547.0530021190643
775,547.791999578476
776,548.5389966964722
777,549.3059940338135
778,550.0609912872314
779,550.8319883346558
780,551.6129856109619
781,552.362982749939
782,553.1159801483154
783,553.8759772777557
784,554.6459743976593
785,555.4119715690613
786,556.1559689044952
787,556.9019663333893
788,557.6529633998871
789,558.4099607467651
790,559.1729578971863
791,559.9249551296234
792,560.6629524230957
793,561.4089498519897
794,562.1599469184875
795,562.9039442539215
796,563.6439416408539
797,564.3889389038086
798,565.1349360942841
799,565.8749334812164
800,566.600930929184
801,567.3309280872345
802,568.0669255256653
803,568.8019227981567
804,569.5269200801849
805,570.2479174137115
806,570.9779148101807
807,571.7059121131897
808,572.4289095401764
809,573.1459069252014
810,573.8789043426514
811,574.6149015426636
812,575.3428988456726
813,576.0648963451385
814,576.7918934822083
815,577.5228908061981
816,578.2528882026672
817,578.9708857536316
818,579.6898829936981
819,580.4148802757263
820,581.1448776721954
821,581.8618750572205
822,582.5868723392487
823,583.3208696842194
824,584.0608670711517
825,584.8028643131256
826,585.5338616371155
827,586.2768590450287
828,587.0228562355042
829,587.7628536224365
830,588.4958508014679
831,589.2408480644226
832,589.9948453903198
833,590.7458426952362
834,591.4818398952484
835,592.2118372917175
836,592.946834564209
837,593.6888318061829
838,594.4228291511536
839,595.1498265266418
840,595.8868238925934
841,596.629821062088
842,597.3868184089661
843,598.1338157653809
844,598.8848128318787
845,599.6498100757599
846,600.4168074131012
847,601.1628046035767
848,601.8988018035889
849,602.639799118042
850,603.3847963809967
851,604.1287937164307
852,604.866791009903
853,605.594788312912
854,606.3307857513428
855,607.0837829113007
856,607.8337802886963
857,608.5937774181366
858,609.3717746734619
859,610.1757717132568
860,610.9597687721252
861,611.7417659759521
862,612.5277631282806
863,613.3137602806091
864,614.0797574520111
865,614.8497545719147
866,615.6227517127991
867,616.3997490406036
868,617.1627461910248
869,617.9157433509827
870,618.6747405529022
871,619.4347379207611
872,620.1927351951599
873,620.9437322616577
874,621.6907296180725
875,622.4487268924713
876,623.2087240219116
877,623.9617214202881
878,624.7047185897827
879,625.4607157707214
880,626.2217130661011
881,626.9647104740143
882,627.7137076854706
883,628.475704908371
884,629.236701965332
885,629.9896993637085
886,630.7386965751648
887,631.4956939220428
888,632.2556910514832
889,633.002688407898
890,633.7496855258942
891,634.5116827487946
892,635.2746801376343
893,636.0326771736145
894,636.7866744995117
895,637.5556716918945
896,638.3236689567566
897,639.0896661281586
898,639.862663269043
899,640.6466603279114
900,641.4096577167511
901,642.173654794693
902,642.9536519050598
903,643.7336490154266
904,644.4976463317871
905,645.2596435546875
906,646.0316407680511
907,646.8096377849579
908,647.5836350917816
909,648.3486323356628
910,649.122629404068
911,649.9046266078949
912,650.6846237182617
913,651.4506208896637
914,652.2116181850433
915,652.9826152324677
916,653.7556126117706
917,654.5326097011566
918,655.3006069660187
919,656.0626041889191
920,656.8306012153625
921,657.6045985221863
922,658.3775956630707
923,659.1395928859711
924,659.8935902118683
925,660.6565873622894
926,661.4215846061707
927,662.1905817985535
928,662.9485790729523
929,663.704576253891
930,664.4745733737946
931,665.2515704631805
932,666.0325677394867
933,666.7905650138855
934,667.5565621852875
935,668.3315591812134
936,669.1015565395355
937,669.8565537929535
938,670.6055510044098
939,671.3615481853485
940,672.1155455112457
941,672.8705427646637
942,673.6215400695801
943,674.3775372505188
944,675.1505343914032
945,675.9215316772461
946,676.6925287246704
947,677.4545259475708
948,678.2295231819153
949,679.0125203132629
950,679.7935173511505
951,680.5645146369934
952,681.3275117874146
953,682.1045091152191
954,682.8855061531067
955,683.6705033779144
956,684.4415004253387
957,685.2124977111816
958,685.9974946975708
959,686.789491891861
960,687.5494890213013
961,688.3174862861633
962,689.0974833965302
963,689.8834805488586
964,690.6524777412415
965,691.4274749755859
966,692.2114720344543
967,692.9814693927765
968,693.7334666252136
969,694.495463848114
970,695.2704608440399
971,696.0504579544067
972,696.8254551887512
973,697.610452413559
974,698.4024493694305
975,699.1974465847015
976,699.9894437789917
977,700.7844407558441
978,701.5744378566742
979,702.3694350719452
980,703.1624321937561
981,703.9574291706085
982,704.7514262199402
983,705.5474233627319
984,706.3454203605652
985,707.143417596817
986,707.9444146156311
987,708.7424116134644
988,709.5294089317322
989,710.3154060840607
990,711.1054031848907
991,711.8984003067017
992,712.6873972415924
993,713.4713945388794
994,714.2603914737701
995,715.0563886165619
996,715.8393857479095
997,716.6083829402924
998,717.3893802165985
999,718.1683773994446
1000,718.9463744163513
1001,719.7233715057373
1002,720.4933688640594
1003,721.2663660049438
1004,722.0443632602692
1005,722.8273603916168
1006,723.6133573055267
1007,724.4023544788361
1008,725.1833517551422
1009,725.952348947525
1010,726.7223460674286
1011,727.5113432407379
1012,728.3003404140472
1013,729.0903375148773
1014,729.8673346042633
1015,730.6523315906525
1016,731.4413287639618
1017,732.2183260917664
1018,733.0113229751587
1019,733.8083202838898
1020,734.5993173122406
1021,735.3823144435883
1022,736.167311668396
1023,736.9623086452484
1024,737.7543058395386
1025,738.5413029193878
1026,739.3303000926971
1027,740.1242971420288
1028,740.9132943153381
1029,741.704291343689
1030,742.4962885379791
1031,743.2832856178284
1032,744.0652828216553
1033,744.8412799835205
1034,745.6252770423889
1035,746.4012742042542
1036,747.1772713661194
1037,747.9442684650421
1038,748.6982657909393
1039,749.4602630138397
1040,750.2232601642609
1041,750.9952573776245
1042,751.7692546844482
1043,752.5292518138885
1044,753.3172488212585
1045,754.1152460575104
1046,754.9192430973053
1047,755.7122402191162
1048,756.5282371044159
1049,757.3542342185974
1050,758.1702311038971
1051,758.9772281646729
1052,759.796225309372
1053,760.6202223300934
1054,761.4212193489075
1055,762.22021651268
1056,763.0222134590149
1057,763.8132104873657
1058,764.5902078151703
1059,765.3522050380707
1060,766.1292021274567
1061,766.9161992073059
1062,767.7071964740753
1063,768.4781935214996
1064,769.2571907043457
1065,770.0561878681183
1066,770.8601849079132
1067,771.6451818943024
1068,772.4381790161133
1069,773.2401762008667
1070,774.0411732196808
1071,774.8231704235077
1072,775.6251673698425
1073,776.4251644611359
1074,777.2241616249084
1075,778.0131587982178
1076,778.8211557865143
1077,779.6351528167725
1078,780.4411499500275
1079,781.2411470413208
1080,782.0601439476013
1081,782.8751409053802
1082,783.6751379966736
1083,784.4821350574493
1084,785.2901322841644
1085,786.0991291999817
1086,786.8931262493134
1087,787.6871235370636
1088,788.4941203594208
1089,789.3021175861359
1090,790.1111145019531
1091,790.9221115112305
1092,791.7141087055206
1093,792.516105890274
1094,793.3231029510498
1095,794.1320998668671
1096,794.9390969276428
1097,795.7230939865112
1098,796.5090911388397
1099,797.3080883026123
1100,798.1000854969025
1101,798.8930823802948
1102,799.6890795230865
1103,800.4810767173767
1104,801.2580738067627
1105,802.0340709686279
1106,802.8320682048798
1107,803.6350650787354
1108,804.4420621395111
1109,805.2590591907501
1110,806.0840561389923
1111,806.9120531082153
1112,807.713050365448
1113,808.5150473117828
1114,809.3250443935394
1115,810.1280415058136
1116,810.9300384521484
1117,811.7200355529785
1118,812.4970328807831
1119,813.2780299186707
1120,814.0610270500183
1121,814.8400242328644
1122,815.6190214157104
1123,816.400018453598
1124,817.1750156879425
1125,817.9400129318237
1126,818.7170100212097
1127,819.4970073699951
1128,820.2790043354034
1129,821.0680015087128
1130,821.8569986820221
1131,822.6329958438873
1132,823.4139928817749
1133,824.2079899311066
1134,824.9949872493744
1135,825.777984380722
1136,826.5599813461304
1137,827.3429787158966
1138,828.1179757118225
1139,828.8989729881287
1140,829.6859700679779
1141,830.4709672927856
1142,831.2539644241333
1143,832.0259613990784
1144,832.786958694458
1145,833.5559558868408
1146,834.3249530792236
1147,835.0899503231049
1148,835.852947473526
1149,836.6139447689056
1150,837.3679420948029
1151,838.1329391002655
1152,838.9059364795685
1153,839.6839334964752
1154,840.4649307727814
1155,841.2469277381897
1156,842.0159249305725
1157,842.7989220619202
1158,843.5849192142487
1159,844.3679163455963
1160,845.1539134979248
1161,845.9359107017517
1162,846.7069079875946
1163,847.4839050769806
1164,848.2759022712708
1165,849.0568993091583
1166,849.8438963890076
1167,850.6248936653137
1168,851.3928906917572
1169,852.1708879470825
1170,852.945885181427
1171,853.7218823432922
1172,854.4918794631958
1173,855.2618765830994
1174,856.0218739509583
1175,856.7978711128235
1176,857.5718681812286
1177,858.349865436554
1178,859.1188626289368
1179,859.8788597583771
1180,860.6358571052551
1181,861.4028542041779
1182,862.1798512935638
1183,862.9558484554291
1184,863.7368457317352
1185,864.5078427791595
1186,865.2778401374817
1187,866.0588371753693
1188,866.8428342342377
1189,867.6238315105438
1190,868.4028286933899
1191,869.1688258647919
1192,869.9368231296539
1193,870.7108201980591
1194,871.4808173179626
1195,872.2548146247864
1196,873.0148117542267
1197,873.7728090286255
1198,874.5398061275482
1199,875.3048033714294
1200,876.0688006877899
1201,876.820797920227
1202,877.5707950592041
1203,878.3217923641205
1204,879.08078956604
1205,879.8377869129181
1206,880.590784072876
1207,881.33678150177
1208,882.0967786312103
1209,882.8617758750916
1210,883.6337730884552
1211,884.4017701148987
1212,885.1607675552368
1213,885.9287645816803
1214,886.6967618465424
1215,887.4627590179443
1216,888.2207562923431
1217,888.973753452301
1218,889.7417507171631
1219,890.5077478885651
1220,891.2747452259064
1221,892.0387423038483
1222,892.7997395992279
1223,893.5647368431091
1224,894.339733839035
1225,895.1257309913635
1226,895.9157280921936
1227,896.7007253170013
1228,897.4757225513458
1229,898.2577195167542
1230,899.044716835022
1231,899.8357138633728
1232,900.6197109222412
1233,901.3787081241608
1234,902.1407053470612
1235,902.9157025814056
1236,903.68869972229
1237,904.4636969566345
1238,905.2296941280365
1239,905.988691329956
1240,906.754688501358
1241,907.5236856937408
1242,908.293683052063
1243,909.0606801509857
1244,909.8186774253845
1245,910.5826745033264
1246,911.3536717891693
1247,912.1166689395905
1248,912.8766663074493
1249,913.6476633548737
1250,914.4166605472565
1251,915.1836578845978
1252,915.9366550445557
1253,916.6996521949768
1254,917.4706494808197
1255,918.241646528244
1256,919.0036437511444
1257,919.764641046524
1258,920.5476381778717
1259,921.334635257721
1260,922.1046326160431
1261,922.8806297779083
1262,923.6666269302368
1263,924.4496240615845
1264,925.2326211929321
1265,926.0026183128357
1266,926.7846155166626
1267,927.5716125965118
1268,928.3586096763611
1269,929.1416068077087
1270,929.9166040420532
1271,930.6956012248993
1272,931.4765982627869
1273,932.257595539093
1274,933.0395925045013
1275,933.800589799881
1276,934.5615870952606
1277,935.3305842876434
1278,936.0935814380646
1279,936.8545787334442
1280,937.6055760383606
1281,938.3625731468201
1282,939.128570318222
1283,939.8875675201416
1284,940.6415648460388
1285,941.3865621089935
1286,942.1415593624115
1287,942.8975565433502
1288,943.6525537967682
1289,944.3945510387421
1290,945.1405484676361
1291,945.8965456485748
1292,946.6585428714752
1293,947.425539970398
1294,948.1885373592377
1295,948.9465343952179
1296,949.7155315876007
1297,950.4905288219452
1298,951.2695260047913
1299,952.0455231666565
1300,952.809520483017
1301,953.570517539978
1302,954.3415148258209
1303,955.1115119457245
1304,955.888509273529
1305,956.6595063209534
1306,957.4235036373138
1307,958.1915006637573
1308,958.9664978981018
1309,959.7434949874878
1310,960.5204923152924
1311,961.2964894771576
1312,962.0714864730835
1313,962.8584837913513
1314,963.6384809017181
1315,964.420478105545
1316,965.195475101471
1317,965.974472284317
1318,966.7554695606232
1319,967.5404665470123
1320,968.312463760376
1321,969.0844609737396
1322,969.8644580841064
1323,970.6454553604126
1324,971.4324524402618
1325,972.2054495811462
1326,972.9754467010498
1327,973.762443780899
1328,974.5484409332275
1329,975.3374381065369
1330,976.1114354133606
1331,976.8874325752258
1332,977.672429561615
1333,978.4584267139435
1334,979.2364239692688
1335,979.9984211921692
1336,980.7704184055328
1337,981.5404155254364
1338,982.3294126987457
1339,983.1024098396301
1340,983.8834068775177
1341,984.6804039478302
1342,985.4904010295868
1343,986.3013980388641
1344,987.0893952846527
1345,987.8753924369812
1346,988.6653895378113
1347,989.4573864936829
1348,990.2323837280273
1349,990.9943809509277
1350,991.7663781642914
1351,992.5393753051758
1352,993.3133723735809
1353,994.0733697414398
1354,994.836366891861
1355,995.6073641777039
1356,996.3913612365723
1357,997.1673583984375
1358,997.9303555488586
1359,998.6873528957367
1360,999.4543499946594
1361,1000.2163472175598
1362,1000.9733445644379
1363,1001.7183418273926
1364,1002.4593391418457
1365,1003.2133362293243
1366,1003.9813334941864
1367,1004.75333070755
1368,1005.5173280239105
1369,1006.3033249378204
1370,1007.0713222026825
1371,1007.835319519043
1372,1008.5813167095184
1373,1009.3623139858246
1374,1010.1733109951019
1375,1010.9953079223633
1376,1011.8063049316406
1377,1012.6153020858765
1378,1013.3922991752625
1379,1014.1762962341309
1380,1014.9582934379578
1381,1015.7392904758453
1382,1016.5352876186371
1383,1017.3262848854065
1384,1018.1162819862366
1385,1018.9212789535522
1386,1019.7352759838104
1387,1020.5502729415894
1388,1021.37327003479
1389,1022.1942670345306
1390,1023.0062639713287
1391,1023.8062610626221
1392,1024.5972583293915
1393,1025.3912553787231
1394,1026.182252407074
1395,1026.966249704361
1396,1027.754246711731
1397,1028.5432438850403
1398,1029.3222410678864
1399,1030.1072380542755
1400,1030.9052352905273
1401,1031.7112321853638
1402,1032.5182292461395
1403,1033.3252263069153
1404,1034.1152234077454
1405,1034.9222204685211
1406,1035.7272176742554
1407,1036.5252146720886
1408,1037.3082118034363
1409,1038.0982089042664
1410,1038.886206150055
1411,1039.6552033424377
1412,1040.431200504303
1413,1041.1951975822449
1414,1041.958194732666
1415,1042.7341918945312
1416,1043.5101890563965
1417,1044.2811863422394
1418,1045.0441834926605
1419,1045.8001809120178
1420,1046.5621781349182
1421,1047.329175233841
1422,1048.1001725196838
1423,1048.8781695365906
1424,1049.6541666984558
1425,1050.4341638088226
1426,1051.2281610965729
1427,1052.0231580734253
1428,1052.8201551437378
1429,1053.6141521930695
1430,1054.413149356842
1431,1055.2121465206146
1432,1056.0091435909271
1433,1056.8011405467987
1434,1057.577137708664
1435,1058.3651349544525
1436,1059.149132013321
1437,1059.9311292171478
1438,1060.7111263275146
1439,1061.4791235923767
1440,1062.2561206817627
1441,1063.0511178970337
1442,1063.849114894867
1443,1064.6361119747162
1444,1065.4121091365814
1445,1066.19810628891
1446,1066.9921033382416
1447,1067.789100408554
1448,1068.5650975704193
1449,1069.3560948371887
1450,1070.1580917835236
1451,1070.9560890197754
1452,1071.7340860366821
1453,1072.5150833129883
1454,1073.30908036232
1455,1074.1030774116516
1456,1074.88707447052
1457,1075.6650717258453
1458,1076.4520688056946
1459,1077.2510659694672
1460,1078.0540630817413
1461,1078.8390600681305
1462,1079.6340572834015
1463,1080.4410543441772
1464,1081.243051290512
1465,1082.0450484752655
1466,1082.864045381546
1467,1083.6870424747467
1468,1084.498039484024
1469,1085.2960364818573
1470,1086.092033624649
1471,1086.8900308609009
1472,1087.6700279712677
1473,1088.4500250816345
1474,1089.2330222129822
1475,1090.0070192813873
1476,1090.7820165157318
1477,1091.5590136051178
1478,1092.32901096344
1479,1093.1020081043243
1480,1093.8570053577423
1481,1094.6070024967194
1482,1095.3729996681213
1483,1096.1349968910217
1484,1096.8939943313599
1485,1097.645991563797
1486,1098.4089887142181
1487,1099.1719858646393
1488,1099.9369831085205
1489,1100.7049803733826
1490,1101.4539775848389
1491,1102.2029747962952
1492,1102.9649720191956
1493,1103.7409691810608
1494,1104.521966457367
1495,1105.3039634227753
1496,1106.0809607505798
1497,1106.8649578094482
1498,1107.649955034256
1499,1108.437952041626
1500,1109.2289490699768
1501,1109.998946428299
1502,1110.764943599701
1503,1111.541940689087
1504,1112.3289377689362
1505,1113.1189348697662
1506,1113.9069321155548
1507,1114.6769292354584
1508,1115.4419264793396
1509,1116.2099237442017
1510,1116.985920906067
1511,1117.7689180374146
1512,1118.5559151172638
1513,1119.3179123401642
1514,1120.0779094696045
1515,1120.85790681839
1516,1121.6369037628174
1517,1122.4239010810852
1518,1123.2008981704712
1519,1123.969895362854
1520,1124.7478923797607
1521,1125.5278897285461
1522,1126.3178868293762
1523,1127.1258838176727
1524,1127.923880815506
1525,1128.7088780403137
1526,1129.5008752346039
1527,1130.2978723049164
1528,1131.089869260788
1529,1131.8818664550781
1530,1132.6608636379242
1531,1133.424860715866
1532,1134.1838579177856
1533,1134.9448552131653
1534,1135.7098524570465
1535,1136.4748497009277
1536,1137.2498469352722
1537,1138.0348439216614
1538,1138.8078410625458
1539,1139.5918383598328
1540,1140.365835428238
1541,1141.1458325386047
1542,1141.9318296909332
1543,1142.7028269767761
1544,1143.4628241062164
1545,1144.223821401596
1546,1144.9868185520172
1547,1145.7408158779144
1548,1146.4828131198883
1549,1147.2338104248047
1550,1147.9858076572418
1551,1148.7428047657013
1552,1149.5018022060394
1553,1150.2457993030548
1554,1150.9957966804504
1555,1151.7477939128876
1556,1152.5007910728455
1557,1153.2607884407043
1558,1154.014785528183
1559,1154.7647829055786
1560,1155.5197801589966
1561,1156.2807774543762
1562,1157.0457744598389
1563,1157.8087718486786
1564,1158.5677690505981
1565,1159.3307662010193
1566,1160.1117632389069
1567,1160.8937604427338
1568,1161.6537578105927
1569,1162.4097549915314
1570,1163.1727521419525
1571,1163.942749261856
1572,1164.7187464237213
1573,1165.479743719101
1574,1166.2377409934998
1575,1167.002738237381
1576,1167.7767353057861
1577,1168.556732416153
1578,1169.326729774475
1579,1170.077726840973
1580,1170.8337242603302
1581,1171.600721359253
1582,1172.3727185726166
1583,1173.1257157325745
1584,1173.864713191986
1585,1174.6157104969025
1586,1175.372707605362
1587,1176.1317048072815
1588,1176.8717021942139
1589,1177.6166994571686
1590,1178.3656966686249
1591,1179.1126940250397
1592,1179.8576912879944
1593,1180.6106884479523
1594,1181.3696856498718
1595,1182.1406829357147
1596,1182.9036800861359
1597,1183.6506774425507
1598,1184.4156746864319
1599,1185.178671836853
1600,1185.9436690807343
1601,1186.6946663856506
1602,1187.443663597107
1603,1188.2006607055664
1604,1188.9566581249237
1605,1189.7016553878784
1606,1190.4486525058746
1607,1191.201649904251
1608,1191.9536471366882
1609,1192.673644542694
1610,1193.3966417312622
1611,1194.127639055252
1612,1194.8536365032196
1613,1195.5796337127686
1614,1196.297631263733
1615,1197.0056285858154
1616,1197.7176260948181
1617,1198.435623407364
1618,1199.1446208953857
1619,1199.8546183109283
1620,1200.5636155605316
1621,1201.2776129245758
1622,1201.9996104240417
1623,1202.7256076335907
1624,1203.4506051540375
1625,1204.1846024990082
1626,1204.9255995750427
1627,1205.6785969734192
1628,1206.4325942993164
1629,1207.173591375351
1630,1207.914588689804
1631,1208.6595859527588
1632,1209.4115834236145
1633,1210.1695804595947
1634,1210.9185779094696
1635,1211.6715750694275
1636,1212.4205722808838
1637,1213.1655695438385
1638,1213.90056681633
1639,1214.6395642757416
1640,1215.3805615901947
1641,1216.1195588111877
1642,1216.8485560417175
1643,1217.5755534172058
1644,1218.294550895691
1645,1219.0025482177734
1646,1219.706545829773
1647,1220.4115431308746
1648,1221.1255404949188
1649,1221.8485379219055
1650,1222.5745351314545
1651,1223.287532567978
1652,1224.017529964447
1653,1224.75652718544
1654,1225.5045244693756
1655,1226.242521762848
1656,1226.983519077301
1657,1227.7365164756775
1658,1228.484513759613
1659,1229.2225110530853
1660,1229.9505083560944
1661,1230.6795055866241
1662,1231.4175028800964
1663,1232.152500152588
1664,1232.8764975070953
1665,1233.5964949131012
1666,1234.3354923725128
1667,1235.0964894294739
1668,1235.8524868488312
1669,1236.6044840812683
1670,1237.3774812221527
1671,1238.175478219986
1672,1238.954475402832
1673,1239.7234725952148
1674,1240.504469871521
1675,1241.2784669399261
1676,1242.0384640693665
1677,1242.7784614562988
1678,1243.5244586467743
1679,1244.27445602417
1680,1245.0194532871246
1681,1245.7534506320953
1682,1246.4944479465485
1683,1247.2394452095032
1684,1247.9854423999786
1685,1248.7154397964478
1686,1249.4664371013641
1687,1250.2154343128204
1688,1250.97243142128
1689,1251.7244288921356
1690,1252.4804260730743
1691,1253.250423192978
1692,1253.9984204769135
1693,1254.748417854309
1694,1255.5074150562286
1695,1256.2624123096466
1696,1257.0034096240997
1697,1257.7464067935944
1698,1258.4934041500092
1699,1259.2424013614655
1700,1259.9803986549377
1701,1260.7193958759308
1702,1261.4693932533264
1703,1262.2273905277252
1704,1262.9773876667023
1705,1263.727385044098
1706,1264.4873821735382
1707,1265.2503793239594
1708,1265.9973766803741
1709,1266.741374015808
1710,1267.5013711452484
1711,1268.2773683071136
1712,1269.0343656539917
1713,1269.8013627529144
1714,1270.565360069275
1715,1271.3303570747375
1716,1272.0793545246124
1717,1272.8293516635895
1718,1273.5833489894867
1719,1274.3303463459015
1720,1275.0593435764313
1721,1275.7943408489227
1722,1276.534338235855
1723,1277.2643356323242
1724,1277.9963328838348
1725,1278.7403302192688
1726,1279.4803273677826
1727,1280.2123248577118
1728,1280.9393219947815
1729,1281.6843192577362
1730,1282.4303166866302
1731,1283.1663138866425
1732,1283.914311170578
1733,1284.6613085269928
1734,1285.4063057899475
1735,1286.1443030834198
1736,1286.882300376892
1737,1287.6182978153229
1738,1288.3422951698303
1739,1289.0722923278809
1740,1289.8082897663116
1741,1290.5362870693207
1742,1291.2612843513489
1743,1291.993281841278
1744,1292.730278968811
1745,1293.4542763233185
1746,1294.167273759842
1747,1294.8802711963654
1748,1295.601268529892
1749,1296.3262658119202
1750,1297.040263414383
1751,1297.7602605819702
1752,1298.507257938385
1753,1299.260255098343
1754,1299.995252609253
1755,1300.7352497577667
1756,1301.4722471237183
1757,1302.1942443847656
1758,1302.9192419052124
1759,1303.6412391662598
1760,1304.3642365932465
1761,1305.0792338848114
1762,1305.8062312602997
1763,1306.544228553772
1764,1307.2712259292603
1765,1308.00022315979
1766,1308.7402205467224
1767,1309.4832179546356
1768,1310.2262151241302
1769,1310.9632124900818
1770,1311.7072098255157
1771,1312.4472069740295
1772,1313.1832044124603
1773,1313.904201745987
1774,1314.6311991214752
1775,1315.3641963005066
1776,1316.093193769455
1777,1316.8061912059784
1778,1317.525188446045
1779,1318.2471859455109
1780,1318.9681832790375
1781,1319.6821806430817
1782,1320.4111778736115
1783,1321.148175239563
1784,1321.8831725120544
1785,1322.6121699810028
1786,1323.353167295456
1787,1324.1001644134521
1788,1324.8381617069244
1789,1325.5691590309143
1790,1326.305156469345
1791,1327.0401537418365
1792,1327.7581510543823
1793,1328.4761486053467
1794,1329.1991457939148
1795,1329.9211432933807
1796,1330.6421406269073
1797,1331.3621380329132
1798,1332.0891354084015
1799,1332.8231325149536
1800,1333.561129808426
1801,1334.2831273078918
1802,1335.0061247348785
1803,1335.736121892929
1804,1336.4611194133759
1805,1337.1821167469025
1806,1337.8961141109467
1807,1338.6131114959717
1808,1339.3321087360382
1809,1340.0491061210632
1810,1340.7571036815643
1811,1341.4761009216309
1812,1342.2000982761383
1813,1342.9350957870483
1814,1343.6550929546356
1815,1344.3690905570984
1816,1345.0950877666473
1817,1345.8230850696564
1818,1346.5430824756622
1819,1347.2510800361633
1820,1347.9650774002075
1821,1348.6880745887756
1822,1349.4210720062256
1823,1350.143069267273
1824,1350.865066766739
1825,1351.5990641117096
1826,1352.332061290741
1827,1353.054058790207
1828,1353.771056175232
1829,1354.4980535507202
1830,1355.2260508537292
1831,1355.9520480632782
1832,1356.6630456447601
1833,1357.3840429782867
1834,1358.1140403747559
1835,1358.853037595749
1836,1359.5820348262787
1837,1360.3190321922302
1838,1361.0700294971466
1839,1361.8250267505646
1840,1362.5670239925385
1841,1363.3250212669373
1842,1364.0900185108185
1843,1364.8520157337189
1844,1365.6010129451752
1845,1366.3450102806091
1846,1367.0950074195862
1847,1367.851004600525
1848,1368.6070020198822
1849,1369.346999168396
1850,1370.0889964103699
1851,1370.834993839264
1852,1371.5709910392761
1853,1372.292988538742
1854,1373.0159857273102
1855,1373.7439832687378
1856,1374.4769804477692
1857,1375.207977771759
1858,1375.9349751472473
1859,1376.6759724617004
1860,1377.421969652176
1861,1378.1589670181274
1862,1378.8949644565582
1863,1379.6439616680145
1864,1380.4089589118958
1865,1381.157956123352
1866,1381.91295337677
1867,1382.6709506511688
1868,1383.4369478225708
1869,1384.1799449920654
1870,1384.9239423274994
1871,1385.6749396324158
1872,1386.4279367923737
1873,1387.1639342308044
1874,1387.9079315662384
1875,1388.6589286327362
1876,1389.4119260311127
1877,1390.1519231796265
1878,1390.8869206905365
1879,1391.6349177360535
1880,1392.3709151744843
1881,1393.0949125289917
1882,1393.8139097690582
1883,1394.5409071445465
1884,1395.2719044685364
1885,1396.0069019794464
1886,1396.738899230957
1887,1397.482896566391
1888,1398.2288937568665
1889,1398.9698910713196
1890,1399.7008883953094
1891,1400.437885761261
1892,1401.1728830337524
1893,1401.89688038826
1894,1402.6078777313232
1895,1403.319875240326
1896,1404.0468726158142
1897,1404.7688698768616
1898,1405.4848673343658
1899,1406.225864648819
1900,1406.9798617362976
1901,1407.7368590831757
1902,1408.4768562316895
1903,1409.2208535671234
1904,1409.9758508205414
1905,1410.723848104477
1906,1411.4508454799652
1907,1412.179842710495
1908,1412.914840221405
1909,1413.653837442398
1910,1414.3988347053528
1911,1415.1278319358826
1912,1415.85182929039
1913,1416.5798268318176
1914,1417.3088240623474
1915,1418.02082157135
1916,1418.7178189754486
1917,1419.403816461563
1918,1420.085813999176
1919,1420.7748115062714
1920,1421.4708089828491
1921,1422.1808063983917
1922,1422.8758037090302
1923,1423.582801103592
1924,1424.3047986030579
1925,1425.029795885086
1926,1425.7397933006287
1927,1426.4597907066345
1928,1427.1817879676819
1929,1427.9087853431702
1930,1428.6297826766968
1931,1429.3447802066803
1932,1430.0747773647308
1933,1430.8077747821808
1934,1431.534772157669
1935,1432.2567694187164
1936,1432.9807667732239
1937,1433.7067642211914
1938,1434.4377615451813
1939,1435.1707589626312
1940,1435.8897562026978
1941,1436.6227536201477
1942,1437.3687508106232
1943,1438.1187481880188
1944,1438.8777453899384
1945,1439.6197426319122
1946,1440.3657398223877
1947,1441.1237370967865
1948,1441.8897342681885
1949,1442.6567316055298
1950,1443.4027287960052
1951,1444.1437261104584
1952,1444.8927233219147
1953,1445.6487205028534
1954,1446.407717704773
1955,1447.1737151145935
1956,1447.9187123775482
1957,1448.6427097320557
1958,1449.3707070350647
1959,1450.1007044315338
1960,1450.8297016620636
1961,1451.5496990680695
1962,1452.2786962985992
1963,1453.0186936855316
1964,1453.7656910419464
1965,1454.524688243866
1966,1455.2686853408813
1967,1456.0106828212738
1968,1456.7556800842285
1969,1457.506677389145
1970,1458.2576744556427
1971,1459.008671760559
1972,1459.7426691055298
1973,1460.4746663570404
1974,1461.2126636505127
1975,1461.950660943985
1976,1462.6876583099365
1977,1463.4236557483673
1978,1464.1466529369354
1979,1464.8576505184174
1980,1465.576647758484
1981,1466.3156452178955
1982,1467.0706424713135
1983,1467.8336396217346
1984,1468.6076366901398
1985,1469.3736338615417
1986,1470.143631219864
1987,1470.8896284103394
1988,1471.6366257667542
1989,1472.3836228847504
1990,1473.1276202201843
1991,1473.8626174926758
1992,1474.600614786148
1993,1475.3526120185852
1994,1476.121609210968
1995,1476.894606590271
1996,1477.6636037826538
1997,1478.4456007480621
1998,1479.2285978794098
1999,1480.006595134735
2000,1480.7765922546387
2001,1481.5405895709991
2002,1482.2945866584778
2003,1483.0525839328766
2004,1483.805581331253
2005,1484.5565783977509
2006,1485.3045756816864
2007,1486.0465731620789
2008,1486.782570362091
2009,1487.5205676555634
2010,1488.2555649280548
2011,1488.996562242508
2012,1489.7275595664978
2013,1490.4735569953918
2014,1491.2215540409088
2015,1491.9825513362885
2016,1492.7485485076904
2017,1493.5115458965302
2018,1494.2875430583954
2019,1495.0605401992798
2020,1495.8215372562408
2021,1496.5765345096588
2022,1497.328531742096
2023,1498.083528995514
2024,1498.8395264148712
2025,1499.5935235023499
2026,1500.3385207653046
2027,1501.0855181217194
2028,1501.8425154685974
2029,1502.5955126285553
2030,1503.356509923935
2031,1504.1145069599152
2032,1504.8605043888092
2033,1505.6125016212463
2034,1506.3594989776611
2035,1507.1134960651398
2036,1507.8684933185577
2037,1508.6184906959534
2038,1509.3704879283905
2039,1510.1284852027893
2040,1510.8874824047089
2041,1511.6404795646667
2042,1512.3884768486023
2043,1513.1434741020203
2044,1513.9024713039398
2045,1514.656468629837
2046,1515.4124658107758
2047,1516.172462940216
2048,1516.9374601840973
2049,1517.6914575099945
2050,1518.4384548664093
2051,1519.1904520988464
2052,1519.9344491958618
2053,1520.6674466133118
2054,1521.3984439373016
2055,1522.1314413547516
2056,1522.864438533783
2057,1523.605435848236
2058,1524.3434331417084
2059,1525.0744304656982
2060,1525.8244278430939
2061,1526.5864250659943
2062,1527.3434221744537
2063,1528.1054193973541
2064,1528.8434166908264
2065,1529.5874140262604
2066,1530.3384113311768
2067,1531.0834085941315
2068,1531.818405866623
2069,1532.5394032001495
2070,1533.2624006271362
2071,1533.9793980121613
2072,1534.6933953762054
2073,1535.4063928127289
2074,1536.1213901042938
2075,1536.840387582779
2076,1537.5623848438263
2077,1538.287382364273
2078,1539.0113797187805
2079,1539.7313768863678
2080,1540.4563744068146
2081,1541.189371585846
2082,1541.9323689937592
2083,1542.6753661632538
2084,1543.4123635292053
2085,1544.146360874176
2086,1544.8843581676483
2087,1545.6283555030823
2088,1546.3743526935577
2089,1547.1133501529694
2090,1547.8473472595215
2091,1548.5723447799683
2092,1549.301342010498
2093,1550.032339334488
2094,1550.7633366584778
2095,1551.504333972931
2096,1552.2463312149048
2097,1552.9773285388947
2098,1553.706326007843
2099,1554.4363234043121
2100,1555.1803205013275
2101,1555.933317899704
2102,1556.6843152046204
2103,1557.4323122501373
2104,1558.1653096675873
2105,1558.9053070545197
2106,1559.649304151535
2107,1560.3903014659882
2108,1561.1322989463806
2109,1561.8632962703705
2110,1562.5942935943604
2111,1563.3322908878326
2112,1564.076287984848
2113,1564.8302853107452
2114,1565.5902826786041
2115,1566.3372797966003
2116,1567.0942771434784
2117,1567.8632743358612
2118,1568.6342713832855
2119,1569.4022686481476
2120,1570.1592659950256
2121,1570.9042632579803
2122,1571.6532604694366
2123,1572.4062576293945
2124,1573.157254934311
2125,1573.8992521762848
2126,1574.6322495937347
2127,1575.370246887207
2128,1576.1182441711426
2129,1576.8742413520813
2130,1577.6222386360168
2131,1578.372235774994
2132,1579.113233089447
2133,1579.8602304458618
2134,1580.6112277507782
2135,1581.3622250556946
2136,1582.1162221431732
2137,1582.8642194271088
2138,1583.6002168655396
2139,1584.3212141990662
2140,1585.0432114601135
2141,1585.767208814621
2142,1586.473206281662
2143,1587.1842036247253
2144,1587.912201166153
2145,1588.6371984481812
2146,1589.3531959056854
2147,1590.0701930522919
2148,1590.7961905002594
2149,1591.53018784523
2150,1592.2681851387024
2151,1592.9971823692322
2152,1593.735179901123
2153,1594.4731771945953
2154,1595.2121744155884
2155,1595.9471716880798
2156,1596.677169084549
2157,1597.4191663265228
2158,1598.162163734436
2159,1598.9071609973907
2160,1599.6491582393646
2161,1600.384155511856
2162,1601.1231527328491
2163,1601.870150089264
2164,1602.6171474456787
2165,1603.353144645691
2166,1604.0901420116425
2167,1604.8301391601562
2168,1605.5761365890503
2169,1606.319133758545
2170,1607.0411312580109
2171,1607.7681286334991
2172,1608.5061259269714
2173,1609.249123096466
2174,1609.99112033844
2175,1610.7281177043915
2176,1611.478115081787
2177,1612.2361121177673
2178,1612.9921095371246
2179,1613.7461066246033
2180,1614.5211038589478
2181,1615.2671010494232
2182,1615.9990985393524
2183,1616.7320957183838
2184,1617.4720931053162
2185,1618.2210903167725
2186,1618.974087715149
2187,1619.7230849266052
2188,1620.4480822086334
2189,1621.1920795440674
2190,1621.9420766830444
2191,1622.684074163437
2192,1623.4320714473724
2193,1624.1770687103271
2194,1624.9260659217834
2195,1625.6640632152557
2196,1626.4100604057312
2197,1627.16805768013
2198,1627.921054840088
2199,1628.6680521965027
2200,1629.4290494918823
2201,1630.1870467662811
2202,1630.9300439357758
2203,1631.682041168213
2204,1632.4420385360718
2205,1633.189035654068
2206,1633.9380328655243
2207,1634.6970303058624
2208,1635.4680273532867
2209,1636.249024629593
2210,1637.0300216674805
2211,1637.7990188598633
2212,1638.5730159282684
2213,1639.3570132255554
2214,1640.143010377884
2215,1640.92200756073
2216,1641.7050046920776
2217,1642.4940016269684
2218,1643.265998840332
2219,1644.0379960536957
2220,1644.821993112564
2221,1645.6079902648926
2222,1646.3889875411987
2223,1647.15398478508
2224,1647.930981874466
2225,1648.7069790363312
2226,1649.4849762916565
2227,1650.243973493576
2228,1650.9929707050323
2229,1651.759967803955
2230,1652.5339651107788
2231,1653.2889623641968
2232,1654.0449595451355
2233,1654.8059568405151
2234,1655.542953968048
2235,1656.2889513969421
2236,1657.032948732376
2237,1657.7619459629059
2238,1658.4829432964325
2239,1659.2149405479431
2240,1659.9499380588531
2241,1660.6819353103638
2242,1661.4169325828552
2243,1662.16192984581
2244,1662.9119272232056
2245,1663.6479244232178
2246,1664.3899216651917
2247,1665.1329190731049
2248,1665.8819162845612
2249,1666.6119136810303
2250,1667.3469109535217
2251,1668.0889081954956
2252,1668.8459055423737
2253,1669.5879027843475
2254,1670.3368999958038
2255,1671.099897146225
2256,1671.8698945045471
2257,1672.6128916740417
2258,1673.3648889064789
2259,1674.118886232376
2260,1674.8648834228516
2261,1675.601880788803
2262,1676.3508780002594
2263,1677.1048753261566
2264,1677.8568725585938
2265,1678.5888698101044
2266,1679.3348672389984
2267,1680.0928645133972
2268,1680.86186170578
2269,1681.614858865738
2270,1682.3748559951782
2271,1683.1398532390594
2272,1683.898850440979
2273,1684.6578476428986
2274,1685.4288449287415
2275,1686.2068421840668
2276,1686.969839334488
2277,1687.7398364543915
2278,1688.5268335342407
2279,1689.3138308525085
2280,1690.0738279819489
2281,1690.8428251743317
2282,1691.6098222732544
2283,1692.3568196296692
2284,1693.1088168621063
2285,1693.864814043045
2286,1694.6078114509583
2287,1695.3448088169098
2288,1696.0868060588837
2289,1696.8288033008575
2290,1697.5588006973267
2291,1698.2927980422974
2292,1699.0177953243256
2293,1699.7297925949097
2294,1700.4467899799347
2295,1701.1677875518799
2296,1701.8737847805023
2297,1702.5887823104858
2298,1703.3037796020508
2299,1704.0187771320343
2300,1704.7177743911743
2301,1705.424771785736
2302,1706.1317694187164
2303,1706.825766801834
2304,1707.5237641334534
2305,1708.2347617149353
2306,1708.9407591819763
2307,1709.6407566070557
2308,1710.340754032135
2309,1711.0367515087128
2310,1711.721748828888
2311,1712.413746356964
2312,1713.0987439155579
2313,1713.7947413921356
2314,1714.4827387332916
2315,1715.1687362194061
2316,1715.8677337169647
2317,1716.5697312355042
2318,1717.2537286281586
2319,1717.944726228714
2320,1718.645723581314
2321,1719.349720954895
2322,1720.0487184524536
2323,1720.7387158870697
2324,1721.432713508606
2325,1722.1327109336853
2326,1722.8227083683014
2327,1723.5117058753967
2328,1724.209703207016
2329,1724.9137008190155
2330,1725.6226980686188
2331,1726.3316955566406
2332,1727.044692993164
2333,1727.7626903057098
2334,1728.4556877613068
2335,1729.147685289383
2336,1729.8316826820374
2337,1730.5156803131104
2338,1731.2026777267456
2339,1731.88867521286
2340,1732.568672657013
2341,1733.2646701335907
2342,1733.9556677341461
2343,1734.6386651992798
2344,1735.319662809372
2345,1736.0106601715088
2346,1736.6966576576233
2347,1737.3606553077698
2348,1738.0376527309418
2349,1738.718650341034
2350,1739.4006478786469
2351,1740.074645280838
2352,1740.758642911911
2353,1741.4416403770447
2354,1742.1326377391815
2355,1742.8216352462769
2356,1743.5276327133179
2357,1744.2376301288605
2358,1744.934627532959
2359,1745.6336250305176
2360,1746.346622467041
2361,1747.0656199455261
2362,1747.7666172981262
2363,1748.4796147346497
2364,1749.1946120262146
2365,1749.9096095561981
2366,1750.6196069717407
2367,1751.3356041908264
2368,1752.0646016597748
2369,1752.789598941803
2370,1753.5025963783264
2371,1754.2315936088562
2372,1754.956591129303
2373,1755.6775884628296
2374,1756.3765857219696
2375,1757.0845832824707
2376,1757.7925806045532
2377,1758.490578174591
2378,1759.1795756816864
2379,1759.876573085785
2380,1760.5855705738068
2381,1761.2895679473877
2382,1761.9915652275085
2383,1762.709562778473
2384,1763.4355599880219
2385,1764.1555573940277
2386,1764.8865547180176
2387,1765.6255519390106
2388,1766.3635494709015
2389,1767.0805468559265
2390,1767.8025441169739
2391,1768.5315413475037
2392,1769.2295389175415
2393,1769.9305362701416
2394,1770.6295337677002
2395,1771.3185312747955
2396,1772.0115287303925
2397,1772.7115261554718
2398,1773.4005236625671
2399,1774.085521221161
2400,1774.777518749237
2401,1775.4745161533356
2402,1776.1645135879517
2403,1776.8525111675262
2404,1777.5475084781647
2405,1778.2535059452057
2406,1778.9505033493042
2407,1779.6565008163452
2408,1780.3664982318878
2409,1781.0714955329895
2410,1781.7694931030273
2411,1782.465490579605
2412,1783.1574881076813
2413,1783.851485490799
2414,1784.5294830799103
2415,1785.2144804000854
2416,1785.8964779376984
2417,1786.5804755687714
2418,1787.2784729003906
2419,1787.9894704818726
2420,1788.6994678974152
2421,1789.403465270996
2422,1790.1154625415802
2423,1790.840460062027
2424,1791.5534572601318
2425,1792.2714548110962
2426,1792.9994521141052
2427,1793.7144494056702
2428,1794.4294469356537
2429,1795.138444185257
2430,1795.8304417133331
2431,1796.5314393043518
2432,1797.221436738968
2433,1797.9034342765808
2434,1798.5944316387177
2435,1799.2914290428162
2436,1799.97842669487
2437,1800.6754240989685
2438,1801.3824214935303
2439,1802.0954189300537
2440,1802.8034162521362
2441,1803.526413679123
2442,1804.2574110031128
2443,1804.984408378601
2444,1805.7174055576324
2445,1806.4624028205872
2446,1807.209400177002
2447,1807.9573974609375
2448,1808.6883947849274
2449,1809.4303920269012
2450,1810.1673893928528
2451,1810.9023866653442
2452,1811.6543838977814
2453,1812.417381286621
2454,1813.1673784255981
2455,1813.9263756275177
2456,1814.6823728084564
2457,1815.4293701648712
2458,1816.1373674869537
2459,1816.8503649234772
2460,1817.5563623905182
2461,1818.2693598270416
2462,1818.9723572731018
2463,1819.686354637146
2464,1820.405352115631
2465,1821.118349313736
2466,1821.8393466472626
2467,1822.5553441047668
2468,1823.2783415317535
2469,1823.9983389377594
2470,1824.7213361263275
2471,1825.4573335647583
2472,1826.191330909729
2473,1826.917328119278
2474,1827.6463255882263
2475,1828.3773229122162
2476,1829.086320400238
2477,1829.7813177108765
2478,1830.4763152599335
2479,1831.1663126945496
2480,1831.8493101596832
2481,1832.5293078422546
2482,1833.2073051929474
2483,1833.893302679062
2484,1834.5763001441956
2485,1835.2532978057861
2486,1835.9302952289581
2487,1836.612292766571
2488,1837.3042902946472
2489,1838.0122876167297
2490,1838.7242851257324
2491,1839.4502823352814
2492,1840.1682798862457
2493,1840.8782773017883
2494,1841.599274635315
2495,1842.3232719898224
2496,1843.0582692623138
2497,1843.7942667007446
2498,1844.5352637767792
2499,1845.2832610607147
2500,1846.0252585411072
2501,1846.7582557201385
2502,1847.4942531585693
2503,1848.2252504825592
2504,1848.95924782753
2505,1849.682245016098
2506,1850.399242401123
2507,1851.1132397651672
2508,1851.8232371807098
2509,1852.515234708786
2510,1853.205232143402
2511,1853.8942296504974
2512,1854.5852272510529
2513,1855.272224664688
2514,1855.9682221412659
2515,1856.6722195148468
2516,1857.3832168579102
2517,1858.0932142734528
2518,1858.7972118854523
2519,1859.4972093105316
2520,1860.1962065696716
2521,1860.8902041912079
2522,1861.5772016048431
2523,1862.2601990699768
2524,1862.9401967525482
2525,1863.6231942176819
2526,1864.3081917762756
2527,1864.981189250946
2528,1865.6611866950989
2529,1866.342184305191
2530,1867.0211818218231
2531,1867.7081792354584
2532,1868.3891768455505
2533,1869.0701742172241
2534,1869.752171754837
2535,1870.4351692199707
2536,1871.1091668605804
2537,1871.792164325714
2538,1872.476161956787
2539,1873.1571593284607
2540,1873.8371567726135
2541,1874.5301542282104
2542,1875.2141518592834
2543,1875.911149263382
2544,1876.6071467399597
2545,1877.2891442775726
2546,1877.962141752243
2547,1878.6391394138336
2548,1879.3001368045807
2549,1879.9531345367432
2550,1880.609132051468
2551,1881.2611298561096
2552,1881.907127380371
2553,1882.5721249580383
2554,1883.2451224327087
2555,1883.9221200942993
2556,1884.6091175079346
2557,1885.3021149635315
2558,1885.9741125106812
2559,1886.670109987259
2560,1887.3681075572968
2561,1888.0491049289703
2562,1888.737102508545
2563,1889.4280998706818
2564,1890.106097459793
2565,1890.7930948734283
2566,1891.4860923290253
2567,1892.1860897541046
2568,1892.8790874481201
2569,1893.5740847587585
2570,1894.2750823497772
2571,1894.9680798053741
2572,1895.6500771045685
2573,1896.3460745811462
2574,1897.0410721302032
2575,1897.7220697402954
2576,1898.4150671958923
2577,1899.1100645065308
2578,1899.804062128067
2579,1900.4890594482422
2580,1901.18705701828
2581,1901.8970544338226
2582,1902.6070518493652
2583,1903.3080492019653
2584,1904.0100467205048
2585,1904.713044166565
2586,1905.4080414772034
2587,1906.1020390987396
2588,1906.802036523819
2589,1907.4940340518951
2590,1908.1800315380096
2591,1908.8790287971497
2592,1909.5770263671875
2593,1910.276023864746
2594,1910.9550213813782
2595,1911.6430187225342
2596,1912.336016178131
2597,1913.0330138206482
2598,1913.7270112037659
2599,1914.428008556366
2600,1915.134006023407
2601,1915.8410034179688
2602,1916.5320010185242
2603,1917.2169983386993
2604,1917.8969960212708
2605,1918.588993549347
2606,1919.2999908924103
2607,1920.0189881324768
2608,1920.723985671997
2609,1921.4319829940796
2610,1922.155980348587
2611,1922.8879778385162
2612,1923.6259751319885
2613,1924.349972486496
2614,1925.0859696865082
2615,1925.8349668979645
2616,1926.5779643058777
2617,1927.3069615364075
2618,1928.0509588718414
2619,1928.7899560928345
2620,1929.513953447342
2621,1930.248950958252
2622,1930.9839482307434
2623,1931.7099454402924
2624,1932.4289429187775
2625,1933.1509401798248
2626,1933.8749375343323
2627,1934.5849349498749
2628,1935.2979323863983
2629,1936.0219297409058
2630,1936.748927116394
2631,1937.465924501419
2632,1938.1879217624664
2633,1938.9149191379547
2634,1939.6399166584015
2635,1940.3709139823914
2636,1941.1119112968445
2637,1941.8539085388184
2638,1942.5819058418274
2639,1943.313903093338
2640,1944.0439004898071
2641,1944.7558979988098
2642,1945.4848952293396
2643,1946.2078926563263
2644,1946.9218900203705
2645,1947.6268873214722
2646,1948.348884820938
2647,1949.0768821239471
2648,1949.805879354477
2649,1950.5328767299652
2650,1951.2548742294312
2651,1951.9978713989258
2652,1952.7378687858582
2653,1953.4828660488129
2654,1954.196863412857
2655,1954.9158608913422
2656,1955.6568579673767
2657,1956.39985537529
2658,1957.1508526802063
2659,1957.8838498592377
2660,1958.6198472976685
2661,1959.3558444976807
2662,1960.0868418216705
2663,1960.8078391551971
2664,1961.5378365516663
2665,1962.2628338336945
2666,1962.9788312911987
2667,1963.7008287906647
2668,1964.4218261241913
2669,1965.1408233642578
2670,1965.8758206367493
2671,1966.6208181381226
2672,1967.366815328598
2673,1968.110812664032
2674,1968.8568098545074
2675,1969.6168069839478
2676,1970.3668043613434
2677,1971.08980178833
2678,1971.8307991027832
2679,1972.5897963047028
2680,1973.3557934761047
2681,1974.1127905845642
2682,1974.859787940979
2683,1975.6287851333618
2684,1976.3947823047638
2685,1977.1667795181274
2686,1977.936776638031
2687,1978.6947739124298
2688,1979.457771062851
2689,1980.2287683486938
2690,1981.0007655620575
2691,1981.7657628059387
2692,1982.5187599658966
2693,1983.2717571258545
2694,1984.0147545337677
2695,1984.7517518997192
2696,1985.4867491722107
2697,1986.2257463932037
2698,1986.950743675232
2699,1987.680741071701
2700,1988.4057385921478
2701,1989.1367359161377
2702,1989.8687331676483
2703,1990.5997304916382
2704,1991.3317277431488
2705,1992.0667250156403
2706,1992.800722360611
2707,1993.5387196540833
2708,1994.2777171134949
2709,1995.0237143039703
2710,1995.768711566925
2711,1996.5157089233398
2712,1997.267706155777
2713,1998.0187034606934
2714,1998.7697005271912
2715,1999.5256979465485
2716,2000.2896950244904
2717,2001.0516922473907
2718,2001.8086895942688
2719,2002.555686712265
2720,2003.3086841106415
2721,2004.0706813335419
2722,2004.8326785564423
2723,2005.5946757793427
2724,2006.3466730117798
2725,2007.1056702136993
2726,2007.8606674671173
2727,2008.6076645851135
2728,2009.3516619205475
2729,2010.1006591320038
2730,2010.8526566028595
2731,2011.5976538658142
2732,2012.3416509628296
2733,2013.0856482982635
2734,2013.825645685196
2735,2014.5636429786682
2736,2015.3066401481628
2737,2016.0556375980377
2738,2016.7956347465515
2739,2017.5226321220398
2740,2018.2406294345856
2741,2018.9606268405914
2742,2019.6856243610382
2743,2020.3916215896606
2744,2021.0886192321777
2745,2021.786616563797
2746,2022.4776141643524
2747,2023.1626114845276
2748,2023.8526089191437
2749,2024.54660654068
2750,2025.2556037902832
2751,2025.9746012687683
2752,2026.6995985507965
2753,2027.425595998764
2754,2028.167593240738
2755,2028.9145905971527
2756,2029.6585879325867
2757,2030.3985850811005
2758,2031.1395823955536
2759,2031.885579586029
2760,2032.6275770664215
2761,2033.3675742149353
2762,2034.1025714874268
2763,2034.8315689563751
2764,2035.5665662288666
2765,2036.2915635108948
2766,2037.0095610618591
2767,2037.729558467865
2768,2038.4435558319092
2769,2039.1575531959534
2770,2039.8635506629944
2771,2040.5785479545593
2772,2041.2985453605652
2773,2042.0115427970886
2774,2042.7395401000977
2775,2043.4795372486115
2776,2044.2115347385406
2777,2044.9325320720673
2778,2045.6515293121338
2779,2046.378526687622
2780,2047.113524198532
2781,2047.8475213050842
2782,2048.5795187950134
2783,2049.3165159225464
2784,2050.041513442993
2785,2050.7645106315613
2786,2051.486508131027
2787,2052.209505558014
2788,2052.9285027980804
2789,2053.6315002441406
2790,2054.3254976272583
2791,2055.0084953308105
2792,2055.689492702484
2793,2056.3834903240204
2794,2057.0974876880646
2795,2057.8044850826263
2796,2058.5134823322296
2797,2059.2274799346924
2798,2059.9384772777557
2799,2060.6424746513367
2800,2061.3414721488953
2801,2062.040469646454
2802,2062.740467071533
2803,2063.4574644565582
2804,2064.199461698532
2805,2064.9424588680267
2806,2065.6924562454224
2807,2066.4444534778595
2808,2067.181450843811
2809,2067.9194481372833
2810,2068.656445503235
2811,2069.3964426517487
2812,2070.1354401111603
2813,2070.880437374115
2814,2071.633434534073
2815,2072.4034316539764
2816,2073.1584289073944
2817,2073.9234261512756
2818,2074.6894233226776
2819,2075.442420721054
2820,2076.198417901993
2821,2076.9624149799347
2822,2077.7394123077393
2823,2078.5134093761444
2824,2079.2904064655304
2825,2080.064403772354
2826,2080.828400850296
2827,2081.588398218155
2828,2082.3473954200745
2829,2083.1053926944733
2830,2083.848389863968
2831,2084.5843873023987
2832,2085.3183846473694
2833,2086.04838180542
2834,2086.7823791503906
2835,2087.5343763828278
2836,2088.286373615265
2837,2089.0443708896637
2838,2089.8053681850433
2839,2090.5553653240204
2840,2091.307362794876
2841,2092.068359851837
2842,2092.8323571681976
2843,2093.605354309082
2844,2094.369351387024
2845,2095.137348651886
2846,2095.905345916748
2847,2096.682343006134
2848,2097.4473402500153
2849,2098.2203373908997
2850,2099.0033345222473
2851,2099.785331726074
2852,2100.565328836441
2853,2101.328325986862
2854,2102.0963232517242
2855,2102.8753204345703
2856,2103.658317565918
2857,2104.4363148212433
2858,2105.203311920166
2859,2105.9513092041016
2860,2106.6963064670563
2861,2107.4423036575317
2862,2108.1923010349274
2863,2108.9422981739044
2864,2109.6982955932617
2865,2110.4462928771973
2866,2111.200289964676
2867,2111.956287384033
2868,2112.707284450531
2869,2113.4632818698883
2870,2114.222279071808
2871,2114.974276304245
2872,2115.721273422241
2873,2116.452270746231
2874,2117.2032680511475
2875,2117.9552652835846
2876,2118.709262609482
2877,2119.4652597904205
2878,2120.218257188797
2879,2120.9642543792725
2880,2121.7192516326904
2881,2122.4732489585876
2882,2123.2272460460663
2883,2123.9672434329987
2884,2124.7062406539917
2885,2125.457237958908
2886,2126.214235305786
2887,2126.9732325077057
2888,2127.719229698181
2889,2128.464226961136
2890,2129.218224287033
2891,2129.9692215919495
2892,2130.7082188129425
2893,2131.4502160549164
2894,2132.196213245392
2895,2132.9342107772827
2896,2133.6612079143524
2897,2134.386205434799
2898,2135.117202758789
2899,2135.8512001037598
2900,2136.586197376251
2901,2137.3331944942474
2902,2138.0661919116974
2903,2138.7951893806458
2904,2139.541186571121
2905,2140.288183927536
2906,2141.0341811180115
2907,2141.7631783485413
2908,2142.5041756629944
2909,2143.25217294693
2910,2143.9971702098846
2911,2144.729167699814
2912,2145.468164920807
2913,2146.2141621112823
2914,2146.9581594467163
2915,2147.6831567287445
2916,2148.423154115677
2917,2149.148151397705
2918,2149.884148836136
2919,2150.623146057129
2920,2151.3601434230804
2921,2152.095140695572
2922,2152.8411378860474
2923,2153.5851352214813
2924,2154.3121325969696
2925,2155.0531299114227
2926,2155.799127101898
2927,2156.5391244888306
2928,2157.279121875763
2929,2158.002119064331
2930,2158.7261164188385
2931,2159.4591138362885
2932,2160.1851110458374
2933,2160.913108587265
2934,2161.62810587883
2935,2162.343103170395
2936,2163.0631005764008
2937,2163.7850980758667
2938,2164.5140953063965
2939,2165.235092639923
2940,2165.947090148926
2941,2166.669087409973
2942,2167.400084733963
2943,2168.1130821704865
2944,2168.8190796375275
2945,2169.542077064514
2946,2170.2650742530823
2947,2170.986071586609
2948,2171.7000691890717
2949,2172.409066438675
2950,2173.1320638656616
2951,2173.85906124115
2952,2174.5800585746765
2953,2175.29105591774
2954,2176.0140533447266
2955,2176.7500505447388
2956,2177.477047920227
2957,2178.1920454502106
2958,2178.9060428142548
2959,2179.622040271759
2960,2180.3380374908447
2961,2181.040035009384
2962,2181.746032476425
2963,2182.456029891968
2964,2183.169027328491
2965,2183.900024652481
2966,2184.6320219039917
2967,2185.3470191955566
2968,2186.0810165405273
2969,2186.817013978958
2970,2187.5470111370087
2971,2188.285008430481
2972,2188.9990060329437
2973,2189.722003221512
2974,2190.440000772476
2975,2191.1539981365204
2976,2191.874995470047
2977,2192.5879929065704
2978,2193.293990135193
2979,2194.004987716675
2980,2194.715985059738
2981,2195.4059824943542
2982,2196.0899801254272
2983,2196.783977508545
2984,2197.4799749851227
2985,2198.1859724521637
2986,2198.8879697322845
2987,2199.589967250824
2988,2200.292964696884
2989,2201.0119619369507
2990,2201.7459592819214
2991,2202.487956762314
2992,2203.2059540748596
2993,2203.921951532364
2994,2204.6429488658905
2995,2205.3689460754395
2996,2206.092943429947
2997,2206.797940969467
2998,2207.512938261032
2999,2208.2399356365204
3000,2208.9619331359863
3001,2209.6849303245544
3002,2210.3899278640747
3003,2211.116925239563
3004,2211.8409225940704
3005,2212.575919866562
3006,2213.3209171295166
3007,2214.052914381027
3008,2214.7699117660522
3009,2215.4979090690613
3010,2216.231906414032
3011,2216.962903738022
3012,2217.684901237488
3013,2218.401898622513
3014,2219.1308958530426
3015,2219.8618931770325
3016,2220.598890542984
3017,2221.329887866974
3018,2222.0618851184845
3019,2222.795882463455
3020,2223.5358798503876
3021,2224.2768771648407
3022,2224.998874425888
3023,2225.715871810913
3024,2226.443869113922
3025,2227.1758666038513
3026,2227.8958637714386
3027,2228.611861228943
3028,2229.3438584804535
3029,2230.0798559188843
3030,2230.79785323143
3031,2231.515850543976
3032,2232.2408480644226
3033,2232.9728453159332
3034,2233.694842815399
3035,2234.409840106964
3036,2235.1318373680115
3037,2235.8508348464966
3038,2236.56383228302
3039,2237.2768297195435
3040,2237.99582695961
3041,2238.715824365616
3042,2239.4358217716217
3043,2240.1588191986084
3044,2240.8708164691925
3045,2241.59681391716
3046,2242.316811323166
3047,2243.039808511734
3048,2243.75980591774
3049,2244.4778032302856
3050,2245.1948006153107
3051,2245.8957982063293
3052,2246.5997955799103
3053,2247.320792913437
3054,2248.0467903614044
3055,2248.752787590027
3056,2249.473785161972
3057,2250.1977825164795
3058,2250.9207797050476
3059,2251.6267771720886
3060,2252.3307745456696
3061,2253.0367720127106
3062,2253.7617695331573
3063,2254.482766866684
3064,2255.205764055252
3065,2255.9237616062164
3066,2256.641758918762
3067,2257.3717563152313
3068,2258.105753660202
3069,2258.845750808716
3070,2259.5957481861115
3071,2260.3337454795837
3072,2261.056742668152
3073,2261.797739982605
3074,2262.549737215042
3075,2263.3037345409393
3076,2264.051731824875
3077,2264.789729118347
3078,2265.5357263088226
3079,2266.2717237472534
3080,2266.9867210388184
3081,2267.710718393326
3082,2268.4317157268524
3083,2269.146713256836
3084,2269.86271071434
3085,2270.588707923889
3086,2271.297705411911
3087,2272.0057027339935
3088,2272.7197000980377
3089,2273.4416975975037
3090,2274.1516950130463
3091,2274.8516924381256
3092,2275.5566897392273
3093,2276.2706871032715
3094,2276.9926846027374
3095,2277.7176818847656
3096,2278.4376792907715
3097,2279.1656765937805
3098,2279.9066739082336
3099,2280.65767121315
3100,2281.4136683940887
3101,2282.166665792465
3102,2282.9046630859375
3103,2283.650660276413
3104,2284.403657436371
3105,2285.157654762268
3106,2285.909651994705
3107,2286.65464925766
3108,2287.4156465530396
3109,2288.164643764496
3110,2288.9106409549713
3111,2289.646638393402
3112,2290.3926355838776
3113,2291.142632961273
3114,2291.8786301612854
3115,2292.6076276302338
3116,2293.310625076294
3117,2294.023622274399
3118,2294.741619825363
3119,2295.4396171569824
3120,2296.1446146965027
3121,2296.8606119155884
3122,2297.558609485626
3123,2298.2566068172455
3124,2298.963604450226
3125,2299.6766016483307
3126,2300.3755991458893
3127,2301.0805966854095
3128,2301.788594007492
3129,2302.4905915260315
3130,2303.179589033127
3131,2303.8705863952637
3132,2304.56258392334
3133,2305.26358127594
3134,2305.9625787734985
3135,2306.6665761470795
3136,2307.3645737171173
3137,2308.07457113266
3138,2308.810568332672
3139,2309.557565689087
3140,2310.2915630340576
3141,2311.016560316086
3142,2311.7375576496124
3143,2312.466555118561
3144,2313.1955523490906
3145,2313.9365496635437
3146,2314.6845469474792
3147,2315.443544149399
3148,2316.1965413093567
3149,2316.950538635254
3150,2317.7095358371735
3151,2318.4565331935883
3152,2319.2055304050446
3153,2319.9475276470184
3154,2320.6805250644684
3155,2321.393522500992
3156,2322.1135199069977
3157,2322.837517261505
3158,2323.5625145435333
3159,2324.2735118865967
3160,2324.973509311676
3161,2325.679506778717
3162,2326.3915042877197
3163,2327.1125016212463
3164,2327.8244988918304
3165,2328.5224964618683
3166,2329.2374937534332
3167,2329.9624910354614
3168,2330.6954884529114
3169,2331.4254858493805
3170,2332.1454832553864
3171,2332.8734805583954
3172,2333.605477809906
3173,2334.3344752788544
3174,2335.0494725704193
3175,2335.7654700279236
3176,2336.4964673519135
3177,2337.231464624405
3178,2337.9514620304108
3179,2338.6664593219757
3180,2339.390456676483
3181,2340.124454021454
3182,2340.8504514694214
3183,2341.5644488334656
3184,2342.294445991516
3185,2343.0314433574677
3186,2343.7534408569336
3187,2344.4694380760193
3188,2345.20343542099
3189,2345.93643283844
3190,2346.6824300289154
3191,2347.408427476883
3192,2348.1424248218536
3193,2348.878422021866
3194,2349.6124193668365
3195,2350.350416660309
3196,2351.0604140758514
3197,2351.7664115428925
3198,2352.479408979416
3199,2353.204406261444
3200,2353.935403585434
3201,2354.6614010334015
3202,2355.380398273468
3203,2356.1013956069946
3204,2356.8313930034637
3205,2357.5643904209137
3206,2358.2853877544403
3207,2359.003385066986
3208,2359.7273824214935
3209,2360.462379693985
3210,2361.192377090454
3211,2361.9303743839264
3212,2362.662371635437
3213,2363.393368959427
3214,2364.13436627388
3215,2364.877363681793
3216,2365.5993609428406
3217,2366.324358224869
3218,2367.056355714798
3219,2367.784353017807
3220,2368.502350330353
3221,2369.2263476848602
3222,2369.9503450393677
3223,2370.680342435837
3224,2371.396339893341
3225,2372.125337123871
3226,2372.8513345718384
3227,2373.5583319664
3228,2374.2793292999268
3229,2375.009326696396
3230,2375.7173240184784
3231,2376.4443213939667
3232,2377.171318769455
3233,2377.88831615448
3234,2378.5973134040833
3235,2379.3183109760284
3236,2380.042308330536
3237,2380.762305498123
3238,2381.48530292511
3239,2382.202300310135
3240,2382.9152977466583
3241,2383.638295173645
3242,2384.3682923316956
3243,2385.108289718628
3244,2385.8432869911194
3245,2386.5832843780518
3246,2387.3382816314697
3247,2388.084278821945
3248,2388.818276166916
3249,2389.5552735328674
3250,2390.2852709293365
3251,2391.006268262863
3252,2391.726265668869
3253,2392.4502630233765
3254,2393.16126036644
3255,2393.8552577495575
3256,2394.5512552261353
3257,2395.245252609253
3258,2395.9492502212524
3259,2396.668247461319
3260,2397.4022448062897
3261,2398.1522421836853
3262,2398.8992393016815
3263,2399.636236667633
3264,2400.3652341365814
3265,2401.105231285095
3266,2401.860228538513
3267,2402.618225812912
3268,2403.360223054886
3269,2404.0972204208374
3270,2404.845217704773
3271,2405.5772149562836
3272,2406.3072123527527
3273,2407.0352096557617
3274,2407.757206916809
3275,2408.4862043857574
3276,2409.207201719284
3277,2409.937199115753
3278,2410.666196346283
3279,2411.4061937332153
3280,2412.1471910476685
3281,2412.8721883296967
3282,2413.598185777664
3283,2414.3251831531525
3284,2415.0531804561615
3285,2415.788177728653
3286,2416.5231750011444
3287,2417.258172273636
3288,2417.9931695461273
3289,2418.729166984558
3290,2419.471164226532
3291,2420.199161529541
3292,2420.9261589050293
3293,2421.663156270981
3294,2422.414153575897
3295,2423.1581506729126
3296,2423.9101481437683
3297,2424.680145263672
3298,2425.4121425151825
3299,2426.157139778137
3300,2426.904137134552
3301,2427.65913438797
3302,2428.4051315784454
3303,2429.167128801346
3304,2429.9121260643005
3305,2430.6661233901978
3306,2431.415120601654
3307,2432.148118019104
3308,2432.888115167618
3309,2433.62611246109
3310,2434.3501098155975
3311,2435.079107284546
3312,2435.8161046504974
3313,2436.550101995468
3314,2437.2800991535187
3315,2438.0160965919495
3316,2438.751093864441
3317,2439.487091064453
3318,2440.223088502884
3319,2440.967085838318
3320,2441.7180829048157
3321,2442.460080385208
3322,2443.2140774726868
3323,2443.9570748806
3324,2444.6950721740723
3325,2445.4490694999695
3326,2446.204066514969
3327,2446.9560639858246
3328,2447.7040610313416
3329,2448.4530584812164
3330,2449.2140555381775
3331,2449.9870529174805
3332,2450.743050098419
3333,2451.4910473823547
3334,2452.2310445308685
3335,2452.9760417938232
3336,2453.726039171219
3337,2454.480036497116
3338,2455.2480335235596
3339,2456.0000307559967
3340,2456.740028142929
3341,2457.485025405884
3342,2458.23402261734
3343,2458.9900200366974
3344,2459.7390172481537
3345,2460.477014541626
3346,2461.213011741638
3347,2461.9500091075897
3348,2462.688006401062
3349,2463.4280037879944
3350,2464.1510009765625
3351,2464.8819983005524
3352,2465.6229956150055
3353,2466.385993003845
3354,2467.155990123749
3355,2467.9019873142242
3356,2468.6539845466614
3357,2469.4109818935394
3358,2470.1609790325165
3359,2470.8779764175415
3360,2471.587973833084
3361,2472.293971300125
3362,2473.0049686431885
3363,2473.7189662456512
3364,2474.436963558197
3365,2475.161960840225
3366,2475.881958246231
3367,2476.6069555282593
3368,2477.326952934265
3369,2478.054950237274
3370,2478.779947757721
3371,2479.4869451522827
3372,2480.2069425582886
3373,2480.927939891815
3374,2481.6529371738434
3375,2482.362934589386
3376,2483.082931995392
3377,2483.793929338455
3378,2484.502926826477
3379,2485.2189240455627
3380,2485.9389214515686
3381,2486.6619188785553
3382,2487.3809163570404
3383,2488.0849137306213
3384,2488.78191113472
3385,2489.471908569336
3386,2490.164906024933
3387,2490.8659036159515
3388,2491.5819008350372
3389,2492.3058981895447
3390,2493.0398955345154
3391,2493.774892807007
3392,2494.503890275955
3393,2495.243887424469
3394,2495.9998848438263
3395,2496.758882045746
3396,2497.510879278183
3397,2498.26287651062
3398,2499.0108737945557
3399,2499.764871120453
3400,2500.5298681259155
3401,2501.295865535736
3402,2502.061862707138
3403,2502.828859806061
3404,2503.601856946945
3405,2504.367854118347
3406,2505.1298513412476
3407,2505.895848751068
3408,2506.6508457660675
3409,2507.3868432044983
3410,2508.12384057045
3411,2508.850837945938
3412,2509.5858352184296
3413,2510.3378324508667
3414,2511.1068296432495
3415,2511.865826845169
3416,2512.693823814392
3417,2513.4908208847046
3418,2514.2648181915283
3419,2515.033815383911
3420,2515.78981256485
3421,2516.538809776306
3422,2517.294806957245
3423,2518.035804271698
3424,2518.7628016471863
3425,2519.480798959732
3426,2520.221796274185
3427,2520.9897935390472
3428,2521.7687907218933
3429,2522.5667877197266
3430,2523.3587849140167
3431,2524.15678191185
3432,2524.971778869629
3433,2525.7837760448456
3434,2526.5717730522156
3435,2527.371770143509
3436,2528.1737673282623
3437,2528.9627645015717
3438,2529.741761445999
3439,2530.528758764267
3440,2531.330755710602
3441,2532.136752843857
3442,2532.93674993515
3443,2533.7257471084595
3444,2534.51474404335
3445,2535.321741104126
3446,2536.1267383098602
3447,2536.928735256195
3448,2537.718732357025
3449,2538.5217294692993
3450,2539.331726551056
3451,2540.1427235603333
3452,2540.9347207546234
3453,2541.7257177829742
3454,2542.5227148532867
3455,2543.3297119140625
3456,2544.139708995819
3457,2544.9257061481476
3458,2545.7197031974792
3459,2546.5227003097534
3460,2547.3256974220276
3461,2548.1246943473816
3462,2548.902691602707
3463,2549.676688671112
3464,2550.46368598938
3465,2551.25368309021
3466,2552.0426800251007
3467,2552.818677186966
3468,2553.6046743392944
3469,2554.3966715335846
3470,2555.1896686553955
3471,2555.983665704727
3472,2556.7696628570557
3473,2557.5546600818634
3474,2558.349657058716
3475,2559.147654056549
3476,2559.9486513137817
3477,2560.7286484241486
3478,2561.5076456069946
3479,2562.293642759323
3480,2563.081639766693
3481,2563.860636949539
3482,2564.618634223938
3483,2565.371631383896
3484,2566.1216287612915
3485,2566.8856258392334
3486,2567.6526231765747
3487,2568.4216203689575
3488,2569.192617416382
3489,2569.959614753723
3490,2570.726611852646
3491,2571.504609107971
3492,2572.2866060733795
3493,2573.0626032352448
3494,2573.821600675583
3495,2574.582597732544
3496,2575.3495950698853
3497,2576.1175920963287
3498,2576.8775894641876
3499,2577.6315865516663
3500,2578.3745839595795
3501,2579.1265811920166
3502,2579.886578321457
3503,2580.642575740814
3504,2581.398572921753
3505,2582.137570142746
3506,2582.8855674266815
3507,2583.6435647010803
3508,2584.4035618305206
3509,2585.165559053421
3510,2585.922556400299
3511,2586.666553735733
3512,2587.41855096817
3513,2588.182548046112
3514,2588.9415452480316
3515,2589.6965425014496
3516,2590.446539878845
3517,2591.1965370178223
3518,2591.9585342407227
3519,2592.724531650543
3520,2593.4715287685394
3521,2594.2235260009766
3522,2594.9815232753754
3523,2595.7385206222534
3524,2596.492517709732
3525,2597.2345151901245
3526,2597.983512401581
3527,2598.7375094890594
3528,2599.490506887436
3529,2600.229504108429
3530,2600.968501329422
3531,2601.717498779297
3532,2602.4734959602356
3533,2603.2254931926727
3534,2603.963490486145
3535,2604.7064878940582
3536,2605.462485074997
3537,2606.2194821834564
3538,2606.966479539871
3539,2607.7064769268036
3540,2608.4614741802216
3541,2609.2164714336395
3542,2609.9824686050415
3543,2610.727465867996
3544,2611.4774630069733
3545,2612.235460281372
3546,2612.98845744133
3547,2613.731454849243
3548,2614.4724521636963
3549,2615.220449447632
3550,2615.972446680069
3551,2616.7174439430237
3552,2617.452441215515
3553,2618.188438653946
3554,2618.9344358444214
3555,2619.677433013916
3556,2620.420430421829
3557,2621.1604278087616
3558,2621.9124250411987
3559,2622.6524221897125
3560,2623.390419483185
3561,2624.1374168395996
3562,2624.8924140930176
3563,2625.6484112739563
3564,2626.384408712387
3565,2627.12140583992
3566,2627.873403072357
3567,2628.6244003772736
3568,2629.362397670746
3569,2630.102395057678
3570,2630.846392393112
3571,2631.588389635086
3572,2632.316386938095
3573,2633.0373842716217
3574,2633.7623817920685
3575,2634.5023789405823
3576,2635.258376121521
3577,2636.0033733844757
3578,2636.746370792389
3579,2637.506367921829
3580,2638.269365310669
3581,2639.0203623771667
3582,2639.7453598976135
3583,2640.4813570976257
3584,2641.2233543395996
3585,2641.938351869583
3586,2642.6523492336273
3587,2643.373346567154
3588,2644.104343891144
3589,2644.8463411331177
3590,2645.597338438034
3591,2646.336335659027
3592,2647.0923330783844
3593,2647.8663301467896
3594,2648.649327278137
3595,2649.405324459076
3596,2650.157321691513
3597,2650.9113190174103
3598,2651.671316385269
3599,2652.4303135871887
3600,2653.1813106536865
3601,2653.9253079891205
3602,2654.6803052425385
3603,2655.4383025169373
3604,2656.180299758911
3605,2656.9152970314026
3606,2657.655294418335
3607,2658.4032917022705
3608,2659.165288925171
3609,2659.9222860336304
3610,2660.6792833805084
3611,2661.464280605316
3612,2662.2362775802612
3613,2663.0012748241425
3614,2663.7672719955444
3615,2664.533269405365
3616,2665.313266515732
3617,2666.0772635936737
3618,2666.83026099205
3619,2667.588258266449
3620,2668.354255437851
3621,2669.1142525672913
3622,2669.8682498931885
3623,2670.624247074127
3624,2671.385244369507
3625,2672.132241487503
3626,2672.8712389469147
3627,2673.6262362003326
3628,2674.384233236313
3629,2675.141230583191
3630,2675.8922278881073
3631,2676.6332252025604
3632,2677.3842222690582
3633,2678.1402196884155
3634,2678.8742170333862
3635,2679.5972142219543
3636,2680.3402116298676
3637,2681.099208831787
3638,2681.86820602417
3639,2682.6242032051086
3640,2683.3812005519867
3641,2684.1451976299286
3642,2684.920194864273
3643,2685.705192089081
3644,2686.4801890850067
3645,2687.244186401367
3646,2688.026183605194
3647,2688.816180706024
3648,2689.605177640915
3649,2690.3791749477386
3650,2691.14217209816
3651,2691.9171693325043
3652,2692.687166452408
3653,2693.45516371727
3654,2694.223160982132
3655,2694.9881579875946
3656,2695.7591552734375
3657,2696.5461523532867
3658,2697.335149526596
3659,2698.117146730423
3660,2698.907143831253
3661,2699.7151408195496
3662,2700.493138074875
3663,2701.2611351013184
3664,2702.038132429123
3665,2702.814129590988
3666,2703.597126722336
3667,2704.359123945236
3668,2705.1181211471558
3669,2705.8851182460785
3670,2706.6701154708862
3671,2707.461112499237
3672,2708.240109682083
3673,2709.02010679245
3674,2709.799103975296
3675,2710.594101190567
3676,2711.371098279953
3677,2712.1430954933167
3678,2712.924092531204
3679,2713.7210896015167
3680,2714.5220868587494
3681,2715.316083908081
3682,2716.093080997467
3683,2716.874078273773
3684,2717.6810750961304
3685,2718.4920723438263
3686,2719.2910692691803
3687,2720.0960664749146
3688,2720.907063484192
3689,2721.7150604724884
3690,2722.5060575008392
3691,2723.278054714203
3692,2724.0550520420074
3693,2724.8510489463806
3694,2725.653046131134
3695,2726.4150433540344
3696,2727.177040576935
3697,2727.95103764534
3698,2728.7090349197388
3699,2729.4540321826935
3700,2730.2010295391083
3701,2730.9520268440247
3702,2731.722023963928
3703,2732.48602104187
3704,2733.2400183677673
3705,2733.9970157146454
3706,2734.765012741089
3707,2735.543009996414
3708,2736.3170070648193
3709,2737.08100438118
3710,2737.8450014591217
3711,2738.6179988384247
3712,2739.3929958343506
3713,2740.1529932022095
3714,2740.924990415573
3715,2741.6929874420166
3716,2742.4619846343994
3717,2743.2219820022583
3718,2743.969979286194
3719,2744.732976436615
3720,2745.5109736919403
3721,2746.2879707813263
3722,2747.0639679431915
3723,2747.84796500206
3724,2748.6469621658325
3725,2749.4369592666626
3726,2750.2059564590454
3727,2750.9799535274506
3728,2751.7639508247375
3729,2752.5389478206635
3730,2753.304945230484
3731,2754.0829422473907
3732,2754.8719394207
3733,2755.653936624527
3734,2756.4129338264465
3735,2757.18493103981
3736,2757.948928117752
3737,2758.7269253730774
3738,2759.4869225025177
3739,2760.2459197044373
3740,2761.0099170207977
3741,2761.785914182663
3742,2762.56791138649
3743,2763.3299086093903
3744,2764.1019055843353
3745,2764.8799028396606
3746,2765.644900083542
3747,2766.398897409439
3748,2767.1698944568634
3749,2767.94989156723
3750,2768.7308888435364
3751,2769.4908859729767
3752,2770.241883277893
3753,2770.996880531311
3754,2771.760877609253
3755,2772.5228748321533
3756,2773.293872117996
3757,2774.054869413376
3758,2774.8258664608
3759,2775.6008636951447
3760,2776.37686085701
3761,2777.130858182907
3762,2777.8888552188873
3763,2778.660852432251
3764,2779.444849729538
3765,2780.229846715927
3766,2781.012843847275
3767,2781.785840988159
3768,2782.569838285446
3769,2783.333835363388
3770,2784.0928325653076
3771,2784.857829809189
3772,2785.6328270435333
3773,2786.4108242988586
3774,2787.172821521759
3775,2787.93381857872
3776,2788.7118158340454
3777,2789.4898130893707
3778,2790.2488102912903
3779,2791.0008075237274
3780,2791.7698047161102
3781,2792.539801836014
3782,2793.313798904419
3783,2794.0637962818146
3784,2794.8107936382294
3785,2795.5717906951904
3786,2796.33078789711
3787,2797.082785129547
3788,2797.842782497406
3789,2798.611779689789
3790,2799.37677693367
3791,2800.150774002075
3792,2800.916771173477
3793,2801.6847684383392
3794,2802.465765476227
3795,2803.2537627220154
3796,2804.02875995636
3797,2804.78675699234
3798,2805.54975438118
3799,2806.323751449585
3800,2807.1147487163544
3801,2807.897745847702
3802,2808.672742843628
3803,2809.4417400360107
3804,2810.217737197876
3805,2810.9947345256805
3806,2811.770731687546
3807,2812.522728919983
3808,2813.2817261219025
3809,2814.0467233657837
3810,2814.819720506668
3811,2815.5767176151276
3812,2816.327714920044
3813,2817.082712173462
3814,2817.847709417343
3815,2818.616706609726
3816,2819.3747038841248
3817,2820.1287009716034
3818,2820.8836982250214
3819,2821.652695417404
3820,2822.4276926517487
3821,2823.19068980217
3822,2823.944687128067
3823,2824.7116842269897
3824,2825.4776816368103
3825,2826.2506787776947
3826,2827.034675836563
3827,2827.7946729660034
3828,2828.558670282364
3829,2829.334667444229
3830,2830.12766456604
3831,2830.8996617794037
3832,2831.664659023285
3833,2832.4266562461853
3834,2833.2036533355713
3835,2833.986650466919
3836,2834.7376477718353
3837,2835.491644859314
3838,2836.251642227173
3839,2837.0136394500732
3840,2837.785636663437
3841,2838.5476338863373
3842,2839.292631149292
3843,2840.04562830925
3844,2840.8196256160736
3845,2841.590622663498
3846,2842.367619752884
3847,2843.1316170692444
3848,2843.8916141986847
3849,2844.656611442566
3850,2845.426608800888
3851,2846.176605939865
3852,2846.9246032238007
3853,2847.6826004981995
3854,2848.4355976581573
3855,2849.1675951480865
3856,2849.926592350006
3857,2850.7265894412994
3858,2851.537586450577
3859,2852.297583580017
3860,2853.0605807304382
3861,2853.8305780887604
3862,2854.586575269699
3863,2855.336572408676
3864,2856.097569704056
3865,2856.8615670204163
3866,2857.626564025879
3867,2858.3955612182617
3868,2859.157558441162
3869,2859.9135558605194
3870,2860.6775529384613
3871,2861.4435501098633
3872,2862.206547498703
3873,2862.9635446071625
3874,2863.7185418605804
3875,2864.471539258957
3876,2865.221536397934
3877,2865.9615337848663
3878,2866.6975309848785
3879,2867.4335284233093
3880,2868.1665256023407
3881,2868.9035229682922
3882,2869.6335203647614
3883,2870.363517522812
3884,2871.0915150642395
3885,2871.8325123786926
3886,2872.5805094242096
3887,2873.322506904602
3888,2874.074504137039
3889,2874.8155014514923
3890,2875.563498735428
3891,2876.318495988846
3892,2877.0754930973053
3893,2877.833490371704
3894,2878.577487707138
3895,2879.3244848251343
3896,2880.069482088089
3897,2880.812479496002
3898,2881.555476665497
3899,2882.310473918915
3900,2883.064471244812
3901,2883.8144686222076
3902,2884.5514657497406
3903,2885.277463197708
3904,2886.0014605522156
3905,2886.725457906723
3906,2887.4304552078247
3907,2888.1584527492523
3908,2888.9054498672485
3909,2889.6374473571777
3910,2890.372444629669
3911,2891.1194417476654
3912,2891.86443901062
3913,2892.6054363250732
3914,2893.3464336395264
3915,2894.0734310150146
3916,2894.7904284000397
3917,2895.5054256916046
3918,2896.220423221588
3919,2896.9344205856323
3920,2897.6514179706573
3921,2898.377415418625
3922,2899.105412721634
3923,2899.836410045624
3924,2900.5784072875977
3925,2901.3094046115875
3926,2902.0394020080566
3927,2902.7793991565704
3928,2903.5173964500427
3929,2904.2673938274384
3930,2905.0083911418915
3931,2905.7363884449005
3932,2906.468385696411
3933,2907.2203829288483
3934,2907.945380449295
3935,2908.6833777427673
3936,2909.4453749656677
3937,2910.2043721675873
3938,2910.9513692855835
3939,2911.707366704941
3940,2912.4523639678955
3941,2913.2023611068726
3942,2913.939358472824
3943,2914.670355796814
3944,2915.395353078842
3945,2916.117350578308
3946,2916.8393478393555
3947,2917.5483453273773
3948,2918.2723426818848
3949,2919.0013399124146
3950,2919.7313373088837
3951,2920.4623346328735
3952,2921.1983320713043
3953,2921.929329395294
3954,2922.6593265533447
3955,2923.3923239707947
3956,2924.1253213882446
3957,2924.8433187007904
3958,2925.564316034317
3959,2926.2863132953644
3960,2927.0063107013702
3961,2927.7233080863953
3962,2928.435305595398
3963,2929.1593029499054
3964,2929.880300283432
3965,2930.584297657013
3966,2931.311295032501
3967,2932.053292274475
3968,2932.811289548874
3969,2933.5702867507935
3970,2934.310284137726
3971,2935.051281452179
3972,2935.7942786216736
3973,2936.5402760505676
3974,2937.2912731170654
3975,2938.044270515442
3976,2938.7792677879333
3977,2939.524265050888
3978,2940.2832622528076
3979,2941.0432596206665
3980,2941.7902567386627
3981,2942.543254137039
3982,2943.3062512874603
3983,2944.0662484169006
3984,2944.8212456703186
3985,2945.58824300766
3986,2946.3592400550842
3987,2947.1342372894287
3988,2947.9032344818115
3989,2948.6682317256927
3990,2949.4372289180756
3991,2950.205225944519
3992,2950.9812231063843
3993,2951.742220401764
3994,2952.502217769623
3995,2953.2812147140503
3996,2954.0612120628357
3997,2954.843209028244
3998,2955.613206386566
3999,2956.3762035369873
4000,2957.1522006988525
4001,2957.923197746277
4002,2958.6831951141357
4003,2959.432192325592
4004,2960.1821897029877
4005,2960.9491868019104
4006,2961.716183900833
4007,2962.489181280136
4008,2963.267178297043
4009,2964.0381755828857
4010,2964.828172683716
4011,2965.618169784546
4012,2966.408166885376
4013,2967.177164077759
4014,2967.9381613731384
4015,2968.6991584300995
4016,2969.460155725479
4017,2970.2141530513763
4018,2970.9521503448486
4019,2971.688147544861
4020,2972.4301447868347
4021,2973.1801421642303
4022,2973.936139345169
4023,2974.681136608124
4024,2975.4281339645386
4025,2976.1841311454773
4026,2976.9471282958984
4027,2977.7051255702972
4028,2978.4511229991913
4029,2979.192120075226
4030,2979.951117515564
4031,2980.712114572525
4032,2981.470111846924
4033,2982.21910905838
4034,2982.965106487274
4035,2983.7261035442352
4036,2984.4821009635925
4037,2985.2320981025696
4038,2985.970095396042
4039,2986.716092824936
4040,2987.468090057373
4041,2988.219087123871
4042,2988.9670844078064
4043,2989.704081773758
4044,2990.4410791397095
4045,2991.1770763397217
4046,2991.909073829651
4047,2992.6300711631775
4048,2993.3370685577393
4049,2994.0590658187866
4050,2994.791063308716
4051,2995.529060602188
4052,2996.2560579776764
4053,2996.9900550842285
4054,2997.7390525341034
4055,2998.5050497055054
4056,2999.2690467834473
4057,3000.0210440158844
4058,3000.790041208267
4059,3001.5560386180878
4060,3002.306035757065
4061,3003.049033164978
4062,3003.7980303764343
4063,3004.54402756691
4064,3005.2860248088837
4065,3006.015022277832
4066,3006.743019580841
4067,3007.4790167808533
4068,3008.2240142822266
4069,3008.968011379242
4070,3009.7030086517334
4071,3010.4520061016083
4072,3011.2090032100677
4073,3011.958000421524
4074,3012.704997777939
4075,3013.4579949378967
4076,3014.2079923152924
4077,3014.9489896297455
4078,3015.6849868297577
4079,3016.4309842586517
4080,3017.171981573105
4081,3017.909978866577
4082,3018.6539759635925
4083,3019.403973340988
4084,3020.161970615387
4085,3020.9109678268433
4086,3021.6729650497437
4087,3022.4519622325897
4088,3023.225959300995
4089,3023.979956626892
4090,3024.7519538402557
4091,3025.5239510536194
4092,3026.2789483070374
4093,3027.0259454250336
4094,3027.779942750931
4095,3028.5489399433136
4096,3029.302937269211
4097,3030.040934562683
4098,3030.785931825638
4099,3031.526929140091
4100,3032.267926454544
4101,3032.996923685074
4102,3033.7229211330414
4103,3034.4609184265137
4104,3035.206915616989
4105,3035.9369130134583
4106,3036.6779103279114
4107,3037.4309074878693
4108,3038.183904647827
4109,3038.921902179718
4110,3039.674899339676
4111,3040.424896478653
4112,3041.1778938770294
4113,3041.917891025543
4114,3042.656888484955
4115,3043.403885602951
4116,3044.1658828258514
4117,3044.907880306244
4118,3045.655877351761
4119,3046.4058747291565
4120,3047.155872106552
4121,3047.8968691825867
4122,3048.652866601944
4123,3049.4248638153076
4124,3050.192860841751
4125,3050.947858095169
4126,3051.707855463028
4127,3052.4728524684906
4128,3053.2308497428894
4129,3053.970847129822
4130,3054.7148444652557
4131,3055.4438416957855
4132,3056.158839225769
4133,3056.86283659935
4134,3057.552834033966
4135,3058.2408316135406
4136,3058.9418289661407
4137,3059.653826236725
4138,3060.375823736191
4139,3061.0748212337494
4140,3061.7888185977936
4141,3062.5178158283234
4142,3063.2618131637573
4143,3063.998810529709
4144,3064.7278077602386
4145,3065.4668052196503
4146,3066.2188024520874
4147,3066.962799549103
4148,3067.691797018051
4149,3068.436794281006
4150,3069.190791606903
4151,3069.946788787842
4152,3070.6897859573364
4153,3071.4417831897736
4154,3072.1887805461884
4155,3072.934777736664
4156,3073.677775144577
4157,3074.41677236557
4158,3075.1727697849274
4159,3075.94176697731
4160,3076.7047641277313
4161,3077.4517612457275
4162,3078.202758550644
4163,3078.967755794525
4164,3079.747752904892
4165,3080.5437500476837
4166,3081.316747188568
4167,3082.0897443294525
4168,3082.890741586685
4169,3083.6937384605408
4170,3084.4797356128693
4171,3085.2547328472137
4172,3086.0367300510406
4173,3086.8247270584106
4174,3087.6067242622375
4175,3088.371721506119
4176,3089.156718492508
4177,3089.9547157287598
4178,3090.7517127990723
4179,3091.53470993042
4180,3092.3307070732117
4181,3093.119704246521
4182,3093.9067013263702
4183,3094.6826984882355
4184,3095.4626955986023
4185,3096.2516927719116
4186,3097.0286898612976
4187,3097.787687063217
4188,3098.561684370041
4189,3099.3346815109253
4190,3100.123678445816
4191,3100.9116756916046
4192,3101.6746728420258
4193,3102.4386701583862
4194,3103.2126672267914
4195,3103.9836645126343
4196,3104.736661672592
4197,3105.4736590385437
4198,3106.2216563224792
4199,3106.979653596878
4200,3107.7446508407593
4201,3108.489648103714
4202,3109.244645357132
4203,3110.0236423015594
4204,3110.8056395053864
4205,3111.5686366558075
4206,3112.321634054184
4207,3113.086631298065
4208,3113.869628429413
4209,3114.667625427246
4210,3115.4566226005554
4211,3116.2306196689606
4212,3117.0106167793274
4213,3117.8046140670776
4214,3118.5976111888885
4215,3119.380608320236
4216,3120.149605512619
4217,3120.937602519989
4218,3121.7345995903015
4219,3122.542596578598
4220,3123.3275938034058
4221,3124.1045908927917
4222,3124.8865880966187
4223,3125.6825852394104
4224,3126.479582309723
4225,3127.2485795021057
4226,3128.040576696396
4227,3128.8355736732483
4228,3129.628570795059
4229,3130.4025678634644
4230,3131.1975650787354
4231,3131.9955620765686
4232,3132.811559200287
4233,3133.589556455612
4234,3134.3635535240173
4235,3135.154550552368
4236,3135.9405477046967
4237,3136.7145450115204
4238,3137.4775421619415
4239,3138.249539375305
4240,3139.032536506653
4241,3139.8285336494446
4242,3140.6085307598114
4243,3141.376527786255
4244,3142.1565251350403
4245,3142.937522172928
4246,3143.7235193252563
4247,3144.492516517639
4248,3145.2665135860443
4249,3146.052510738373
4250,3146.8505079746246
4251,3147.6405050754547
4252,3148.4085023403168
4253,3149.169499397278
4254,3149.947496652603
4255,3150.716493844986
4256,3151.484491109848
4257,3152.235488176346
4258,3152.997485399246
4259,3153.7674827575684
4260,3154.5394797325134
4261,3155.3074769973755
4262,3156.060474395752
4263,3156.8294715881348
4264,3157.600468635559
4265,3158.3754658699036
4266,3159.137463092804
4267,3159.892460346222
4268,3160.6544575691223
4269,3161.4174547195435
4270,3162.1774518489838
4271,3162.9364490509033
4272,3163.686446428299
4273,3164.438443660736
4274,3165.2024409770966
4275,3165.975438117981
4276,3166.7614352703094
4277,3167.539432287216
4278,3168.3204295635223
4279,3169.1084265708923
4280,3169.8974237442017
4281,3170.6744208335876
4282,3171.4434180259705
4283,3172.2244153022766
4284,3173.008412361145
4285,3173.7944095134735
4286,3174.5624067783356
4287,3175.3234038352966
4288,3176.0974011421204
4289,3176.8703982830048
4290,3177.64439535141
4291,3178.399392604828
4292,3179.166389942169
4293,3179.944386959076
4294,3180.726384162903
4295,3181.5013813972473
4296,3182.271378517151
4297,3183.053375720978
4298,3183.8473727703094
4299,3184.644369840622
4300,3185.426367044449
4301,3186.2093641757965
4302,3187.003361225128
4303,3187.7933583259583
4304,3188.5633556842804
4305,3189.336352825165
4306,3190.1253497600555
4307,3190.916347026825
4308,3191.706344127655
4309,3192.4823412895203
4310,3193.2743384838104
4311,3194.066335439682
4312,3194.8623325824738
4313,3195.6433296203613
4314,3196.442326784134
4315,3197.2643237113953
4316,3198.085320711136
4317,3198.896317958832
4318,3199.724314928055
4319,3200.5563118457794
4320,3201.3673088550568
4321,3202.1693058013916
4322,3202.982302904129
4323,3203.7902998924255
4324,3204.5802969932556
4325,3205.3812942504883
4326,3206.1672914028168
4327,3206.939288377762
4328,3207.7352855205536
4329,3208.532282590866
4330,3209.3332798480988
4331,3210.1142768859863
4332,3210.9122738838196
4333,3211.714271068573
4334,3212.526268005371
4335,3213.321265220642
4336,3214.1212623119354
4337,3214.927259206772
4338,3215.7342562675476
4339,3216.5172533988953
4340,3217.3012506961823
4341,3218.092247724533
4342,3218.887244939804
4343,3219.6702420711517
4344,3220.449239253998
4345,3221.245236158371
4346,3222.0472333431244
4347,3222.8532304763794
4348,3223.6492273807526
4349,3224.437224626541
4350,3225.2372217178345
4351,3226.043218612671
4352,3226.846215724945
4353,3227.6242129802704
4354,3228.4002101421356
4355,3229.185207128525
4356,3229.980204343796
4357,3230.7612013816833
4358,3231.530198574066
4359,3232.314195871353
4360,3233.1031930446625
4361,3233.8801901340485
4362,3234.6541872024536
4363,3235.4391844272614
4364,3236.236181497574
4365,3237.036178588867
4366,3237.8061757087708
4367,3238.582172870636
4368,3239.366170167923
4369,3240.1491672992706
4370,3240.9181644916534
4371,3241.6821615695953
4372,3242.4601588249207
4373,3243.2391560077667
4374,3244.0051531791687
4375,3244.7661502361298
4376,3245.5301475524902
4377,3246.2941448688507
4378,3247.043142080307
4379,3247.787139415741
4380,3248.540136575699
4381,3249.300133705139
4382,3250.063131093979
4383,3250.810128211975
4384,3251.5581254959106
4385,3252.3181228637695
4386,3253.086119890213
4387,3253.8451170921326
4388,3254.5941145420074
4389,3255.350111722946
4390,3256.1121089458466
4391,3256.883105993271
4392,3257.635103225708
4393,3258.3851006031036
4394,3259.145097732544
4395,3259.9060950279236
4396,3260.679092168808
4397,3261.434089422226
4398,3262.1830866336823
4399,3262.955083847046
4400,3263.733081102371
4401,3264.5040781497955
4402,3265.2590754032135
4403,3266.0110726356506
4404,3266.781069993973
4405,3267.5470671653748
4406,3268.301064491272
4407,3269.0570616722107
4408,3269.798058986664
4409,3270.542056083679
4410,3271.291053533554
4411,3272.047050714493
4412,3272.798048019409
4413,3273.5600452423096
4414,3274.328042268753
4415,3275.101039648056
4416,3275.8770368099213
4417,3276.666033744812
4418,3277.4570310115814
4419,3278.2440280914307
4420,3279.0380251407623
4421,3279.8220221996307
4422,3280.6080193519592
4423,3281.406016588211
4424,3282.2040135860443
4425,3283.0050106048584
4426,3283.7840077877045
4427,3284.5470049381256
4428,3285.312002182007
4429,3286.090999364853
4430,3286.866996526718
4431,3287.651993751526
4432,3288.436990737915
4433,3289.204988002777
4434,3289.9749851226807
4435,3290.7539823055267
4436,3291.5359795093536
4437,3292.321976661682
4438,3293.10697388649
4439,3293.89497089386
4440,3294.673968076706
4441,3295.4579651355743
4442,3296.240962266922
4443,3297.022959470749
4444,3297.8069565296173
4445,3298.572953939438
4446,3299.3419511318207
4447,3300.120948076248
4448,3300.8969452381134
4449,3301.6729423999786
4450,3302.43793964386
4451,3303.2009370326996
4452,3303.9649341106415
4453,3304.739931344986
4454,3305.5179283618927
4455,3306.2969255447388
4456,3307.058922767639
4457,3307.8179199695587
4458,3308.5869171619415
4459,3309.3559143543243
4460,3310.0969116687775
4461,3310.8269090652466
4462,3311.547906398773
4463,3312.2639038562775
4464,3312.9799013137817
4465,3313.70489859581
4466,3314.4288959503174
4467,3315.1598932743073
4468,3315.8988904953003
4469,3316.637887954712
4470,3317.376885175705
4471,3318.1148824691772
4472,3318.847879886627
4473,3319.578877210617
4474,3320.3118743896484
4475,3321.0538716316223
4476,3321.7888691425323
4477,3322.520866394043
4478,3323.2608637809753
4479,3324.006860971451
4480,3324.742858171463
4481,3325.4808554649353
4482,3326.2218527793884
4483,3326.955850124359
4484,3327.680847644806
4485,3328.403844833374
4486,3329.1218423843384
4487,3329.8358397483826
4488,3330.541836977005
4489,3331.2428345680237
4490,3331.9488320350647
4491,3332.654829263687
4492,3333.3678267002106
4493,3334.0758242607117
4494,3334.7798216342926
4495,3335.492819070816
4496,3336.2018163204193
4497,3336.915813922882
4498,3337.630811214447
4499,3338.3358085155487
4500,3339.0338060855865
4501,3339.735803604126
4502,3340.439800977707
4503,3341.142798423767
4504,3341.838795900345
4505,3342.5357933044434
4506,3343.2417907714844
4507,3343.9527881145477
4508,3344.677785396576
4509,3345.4027829170227
4510,3346.1307802200317
4511,3346.8607773780823
4512,3347.5847747325897
4513,3348.314772129059
4514,3349.043769598007
4515,3349.7667667865753
4516,3350.503764152527
4517,3351.252761363983
4518,3352.009758710861
4519,3352.7557559013367
4520,3353.508753299713
4521,3354.2817504405975
4522,3355.0577476024628
4523,3355.8407447338104
4524,3356.624741792679
4525,3357.4187388420105
4526,3358.2117359638214
4527,3359.0007331371307
4528,3359.798730134964
4529,3360.593727350235
4530,3361.3787245750427
4531,3362.151721715927
4532,3362.907718896866
4533,3363.670716047287
4534,3364.4267132282257
4535,3365.180710554123
4536,3365.9257078170776
4537,3366.676705121994
4538,3367.4307024478912
4539,3368.1926996707916
4540,3368.9556968212128
4541,3369.7166941165924
4542,3370.4746911525726
4543,3371.239688396454
4544,3372.0116856098175
4545,3372.7906827926636
4546,3373.5706799030304
4547,3374.3386771678925
4548,3375.0966744422913
4549,3375.8586716651917
4550,3376.623668909073
4551,3377.400665998459
4552,3378.1786630153656
4553,3378.972660303116
4554,3379.7656574249268
4555,3380.5546543598175
4556,3381.35565161705
4557,3382.1296486854553
4558,3382.9046459198
4559,3383.675642967224
4560,3384.435640335083
4561,3385.18763756752
4562,3385.942634820938
4563,3386.692631959915
4564,3387.417629480362
4565,3388.1506266593933
4566,3388.900624036789
4567,3389.6606211662292
4568,3390.430618286133
4569,3391.187615633011
4570,3391.9486129283905
4571,3392.7176101207733
4572,3393.4936072826385
4573,3394.2676043510437
4574,3395.0376014709473
4575,3395.7915987968445
4576,3396.540596008301
4577,3397.2965931892395
4578,3398.0435905456543
4579,3398.775587797165
4580,3399.5095851421356
4581,3400.2535824775696
4582,3400.999579668045
4583,3401.7615768909454
4584,3402.523574113846
4585,3403.2755715847015
4586,3404.0375685691833
4587,3404.811565876007
4588,3405.5955629348755
4589,3406.3795602321625
4590,3407.139557361603
4591,3407.896554708481
4592,3408.654551744461
4593,3409.423548936844
4594,3410.1875462532043
4595,3410.943543434143
4596,3411.6815407276154
4597,3412.420538187027
4598,3413.173535346985
4599,3413.928532600403
4600,3414.68052983284
4601,3415.430526971817
4602,3416.1755244731903
4603,3416.9145216941833
4604,3417.662518978119
4605,3418.409516096115
4606,3419.1595134735107
4607,3419.9045107364655
4608,3420.6465079784393
4609,3421.396505355835
4610,3422.1565024852753
4611,3422.9094998836517
4612,3423.670496940613
4613,3424.4184942245483
4614,3425.1514916419983
4615,3425.894488811493
4616,3426.6534860134125
4617,3427.4024834632874
4618,3428.1544806957245
4619,3428.908477783203
4620,3429.671475172043
4621,3430.420472383499
4622,3431.1584696769714
4623,3431.892467021942
4624,3432.6254642009735
4625,3433.3574616909027
4626,3434.0784590244293
4627,3434.7914564609528
4628,3435.5064537525177
4629,3436.2344510555267
4630,3436.9684484004974
4631,3437.714445590973
4632,3438.4504430294037
4633,3439.1954402923584
4634,3439.9494376182556
4635,3440.7134346961975
4636,3441.483431816101
4637,3442.2454290390015
4638,3443.007426261902
4639,3443.775423526764
4640,3444.5474207401276
4641,3445.295418024063
4642,3446.042415380478
4643,3446.789412498474
4644,3447.5434098243713
4645,3448.2954070568085
4646,3449.041404247284
4647,3449.7834017276764
4648,3450.529398918152
4649,3451.2823960781097
4650,3452.0313935279846
4651,3452.7683906555176
4652,3453.4963879585266
4653,3454.2323853969574
4654,3454.9653828144073
4655,3455.7023799419403
4656,3456.4243774414062
4657,3457.1413748264313
4658,3457.862372159958
4659,3458.587369441986
4660,3459.3133668899536
4661,3460.026364326477
4662,3460.741361618042
4663,3461.460359096527
4664,3462.189356327057
4665,3462.9203536510468
4666,3463.647351026535
4667,3464.388348340988
4668,3465.132345676422
4669,3465.8903427124023
4670,3466.640340089798
4671,3467.393337249756
4672,3468.1543345451355
4673,3468.9173316955566
4674,3469.670329093933
4675,3470.425326347351
4676,3471.188323497772
4677,3471.954320669174
4678,3472.7063179016113
4679,3473.4743151664734
4680,3474.2513122558594
4681,3475.031309366226
4682,3475.7933065891266
4683,3476.5623037815094
4684,3477.3403010368347
4685,3478.127298116684
4686,3478.9052953720093
4687,3479.6652925014496
4688,3480.4342896938324
4689,3481.2082867622375
4690,3481.9872839450836
4691,3482.7532811164856
4692,3483.5252783298492
4693,3484.307275533676
4694,3485.0942726135254
4695,3485.866269826889
4696,3486.6362669467926
4697,3487.412264108658
4698,3488.1972613334656
4699,3488.9632585048676
4700,3489.725255727768
4701,3490.4992530345917
4702,3491.2712500095367
4703,3492.0322473049164
4704,3492.780244588852
4705,3493.5392417907715
4706,3494.298238992691
4707,3495.0612363815308
4708,3495.7982335090637
4709,3496.5342309474945
4710,3497.28022813797
4711,3498.0292253494263
4712,3498.7842226028442
4713,3499.53221988678
4714,3500.2762172222137
4715,3501.02721452713
4716,3501.780211687088
4717,3502.5412089824677
4718,3503.3052060604095
4719,3504.0522034168243
4720,3504.810200691223
4721,3505.5811977386475
4722,3506.3521950244904
4723,3507.11319231987
4724,3507.878189563751
4725,3508.6681866645813
4726,3509.451183795929
4727,3510.2111809253693
4728,3510.970178127289
4729,3511.7291753292084
4730,3512.4731726646423
4731,3513.207170009613
4732,3513.9411673545837
4733,3514.677164554596
4734,3515.4171619415283
4735,3516.1471593379974
4736,3516.881156682968
4737,3517.6381537914276
4738,3518.411150932312
4739,3519.1861481666565
4740,3519.942145347595
4741,3520.7061426639557
4742,3521.47713971138
4743,3522.2531368732452
4744,3523.022134065628
4745,3523.785131454468
4746,3524.5391285419464
4747,3525.297125816345
4748,3526.052123069763
4749,3526.788120508194
4750,3527.5231177806854
4751,3528.258115053177
4752,3528.996112346649
4753,3529.72810959816
4754,3530.455106973648
4755,3531.183104276657
4756,3531.928101539612
4757,3532.6880989074707
4758,3533.439096212387
4759,3534.1870934963226
4760,3534.947090625763
4761,3535.7070877552032
4762,3536.4610850811005
4763,3537.225082397461
4764,3538.0070793628693
4765,3538.80007648468
4766,3539.5810737609863
4767,3540.35107088089
4768,3541.1070680618286
4769,3541.866065263748
4770,3542.6310625076294
4771,3543.3940596580505
4772,3544.1480569839478
4773,3544.8980543613434
4774,3545.6530516147614
4775,3546.40704870224
4776,3547.1680459976196
4777,3547.9230432510376
4778,3548.6640405654907
4779,3549.400037765503
4780,3550.1340351104736
4781,3550.88303232193
4782,3551.6520295143127
4783,3552.422026872635
4784,3553.174024105072
4785,3553.9420211315155
4786,3554.7070183753967
4787,3555.459015607834
4788,3556.202013015747
4789,3556.947010278702
4790,3557.688007593155
4791,3558.432004928589
4792,3559.1780021190643
4793,3559.908999443054
4794,3560.6349968910217
4795,3561.3639941215515
4796,3562.0999915599823
4797,3562.839988708496
4798,3563.580986022949
4799,3564.3069834709167
4800,3565.042980670929
4801,3565.786978006363
4802,3566.5349752902985
4803,3567.280972480774
4804,3568.034969806671
4805,3568.784966945648
4806,3569.5439641475677
4807,3570.300961494446
4808,3571.0589587688446
4809,3571.794955968857
4810,3572.5309534072876
4811,3573.267950773239
4812,3574.0109479427338
4813,3574.7719452381134
4814,3575.530942440033
4815,3576.269939661026
4816,3577.010936975479
4817,3577.767934322357
4818,3578.522931575775
4819,3579.278928756714
4820,3580.0239260196686
4821,3580.774923324585
4822,3581.5319204330444
4823,3582.2949175834656
4824,3583.042914867401
4825,3583.7849123477936
4826,3584.546909570694
4827,3585.3149065971375
4828,3586.0969038009644
4829,3586.8679010868073
4830,3587.6288981437683
4831,3588.3938953876495
4832,3589.154892683029
4833,3589.9068899154663
4834,3590.6458871364594
4835,3591.3898844718933
4836,3592.1388816833496
4837,3592.8748791217804
4838,3593.611876487732
4839,3594.3558735847473
4840,3595.1108708381653
4841,3595.870868206024
4842,3596.6168653964996
4843,3597.3618626594543
4844,3598.1168599128723
4845,3598.8898570537567
4846,3599.641854286194
4847,3600.39085149765
4848,3601.1528487205505
4849,3601.9108459949493
4850,3602.6618432998657
4851,3603.404840707779
4852,3604.159837961197
4853,3604.9138350486755
4854,3605.6768321990967
4855,3606.408829689026
4856,3607.15282702446
4857,3607.913824081421
4858,3608.681821346283
4859,3609.4378185272217
4860,3610.1828157901764
4861,3610.9288132190704
4862,3611.6778104305267
4863,3612.427807569504
4864,3613.1498050689697
4865,3613.8668024539948
4866,3614.601799726486
4867,3615.34379696846
4868,3616.090794324875
4869,3616.8227915763855
4870,3617.5637888908386
4871,3618.311786174774
4872,3619.078783273697
4873,3619.84978055954
4874,3620.612777709961
4875,3621.3637750148773
4876,3622.1187722682953
4877,3622.879769563675
4878,3623.634766817093
4879,3624.392763853073
4880,3625.150761127472
4881,3625.906758546829
4882,3626.672755718231
4883,3627.450752735138
4884,3628.2117500305176
4885,3628.968747138977
4886,3629.7487444877625
4887,3630.5287415981293
4888,3631.3047387599945
4889,3632.063735961914
4890,3632.810733318329
4891,3633.5587306022644
4892,3634.312727689743
4893,3635.0667250156403
4894,3635.8377220630646
4895,3636.5897195339203
4896,3637.3367166519165
4897,3638.098713874817
4898,3638.863711118698
4899,3639.619708299637
4900,3640.3667056560516
4901,3641.1217029094696
4902,3641.8756999969482
4903,3642.636697292328
4904,3643.368694782257
4905,3644.0926921367645
4906,3644.8196892738342
4907,3645.56968665123
4908,3646.332683801651
4909,3647.0966811180115
4910,3647.8606781959534
4911,3648.632675409317
4912,3649.4166724681854
4913,3650.204669713974
4914,3650.975666999817
4915,3651.739664077759
4916,3652.5116612911224
4917,3653.272658586502
4918,3654.0326557159424
4919,3654.778652906418
4920,3655.535650253296
4921,3656.3056473731995
4922,3657.0746445655823
4923,3657.8366417884827
4924,3658.5866391658783
4925,3659.3476362228394
4926,3660.1096334457397
4927,3660.865630865097
4928,3661.6006281375885
4929,3662.33562541008
4930,3663.0726227760315
4931,3663.816619873047
4932,3664.5536172389984
4933,3665.293614625931
4934,3666.0356118679047
4935,3666.799609184265
4936,3667.574606180191
4937,3668.3276035785675
4938,3669.075600862503
4939,3669.8315980434418
4940,3670.5885951519012
4941,3671.359592437744
4942,3672.106589794159
4943,3672.842586994171
4944,3673.584584236145
4945,3674.3225815296173
4946,3675.0665788650513
4947,3675.8015761375427
4948,3676.531573534012
4949,3677.272570848465
4950,3678.0175681114197
4951,3678.746565580368
4952,3679.475562810898
4953,3680.216560125351
4954,3680.968557357788
4955,3681.720554590225
4956,3682.4555518627167
4957,3683.187549352646
4958,3683.9295465946198
4959,3684.6775438785553
4960,3685.4105410575867
4961,3686.137538433075
4962,3686.867535829544
4963,3687.6075332164764
4964,3688.3595304489136
4965,3689.0825276374817
4966,3689.795525074005
4967,3690.5275223255157
4968,3691.2615196704865
4969,3691.9885170459747
4970,3692.712514400482
4971,3693.4365117549896
4972,3694.1645090579987
4973,3694.880506515503
4974,3695.5925040245056
4975,3696.295501470566
4976,3696.994498729706
4977,3697.6874961853027
4978,3698.381493806839
4979,3699.0664913654327
4980,3699.742488861084
4981,3700.4134862422943
4982,3701.079483985901
4983,3701.758481502533
4984,3702.4504787921906
4985,3703.168476343155
4986,3703.9024736881256
4987,3704.651470899582
4988,3705.4134681224823
4989,3706.1784653663635
4990,3706.9544625282288
4991,3707.7314596176147
4992,3708.523456811905
4993,3709.3154537677765
4994,3710.1084508895874
4995,3710.8894481658936
4996,3711.6684453487396
4997,3712.4514424800873
4998,3713.242439508438
4999,3714.0144367218018
5000,3714.799433708191
5001,3715.5904309749603
5002,3716.381428003311
5003,3717.185425043106
5004,3717.98642206192
5005,3718.7944192886353
5006,3719.575416326523
5007,3720.352413415909
5008,3721.130410671234
5009,3721.9194078445435
5010,3722.7104048728943
5011,3723.498402118683
5012,3724.283399105072
5013,3725.064396381378
5014,3725.819393634796
5015,3726.574390888214
5016,3727.3343880176544
5017,3728.093385219574
5018,3728.8543825149536
5019,3729.6183795928955
5020,3730.3863768577576
5021,3731.1543741226196
5022,3731.9313712120056
5023,3732.695368528366
5024,3733.459365606308
5025,3734.22536277771
5026,3734.9863600730896
5027,3735.751357316971
5028,3736.4973545074463
5029,3737.2413518428802
5030,3737.994349002838
5031,3738.7563462257385
5032,3739.52334356308
5033,3740.2803406715393
5034,3741.040338039398
5035,3741.771335363388
5036,3742.4853327274323
5037,3743.194330215454
5038,3743.8973274230957
5039,3744.5973250865936
5040,3745.2883224487305
5041,3745.9833199977875
5042,3746.69331741333
5043,3747.443314552307
5044,3748.1863119602203
5045,3748.916309118271
5046,3749.6363065242767
5047,3750.3563039302826
5048,3751.070301294327
5049,3751.7802987098694
5050,3752.4862961769104
5051,3753.1892936229706
5052,3753.9072909355164
5053,3754.6212882995605
5054,3755.3272857666016
5055,3756.043283224106
5056,3756.771280527115
5057,3757.4932777881622
5058,3758.232275247574
5059,3758.973272562027
5060,3759.7162697315216
5061,3760.456267118454
5062,3761.198264360428
5063,3761.9352617263794
5064,3762.6742589473724
5065,3763.4132561683655
5066,3764.1452536582947
5067,3764.870250940323
5068,3765.5822484493256
5069,3766.2862458229065
5070,3766.9872431755066
5071,3767.6882407665253
5072,3768.3892381191254
5073,3769.102235555649
5074,3769.824232816696
5075,3770.5752301216125
5076,3771.345227241516
5077,3772.113224506378
5078,3772.8542218208313
5079,3773.5942192077637
5080,3774.316216468811
5081,3775.033213853836
5082,3775.7462112903595
5083,3776.462208509445
5084,3777.1652059555054
5085,3777.866203546524
5086,3778.5612008571625
5087,3779.250198364258
5088,3779.9351959228516
5089,3780.6251933574677
5090,3781.317190885544
5091,3782.0031883716583
5092,3782.6981859207153
5093,3783.3981833457947
5094,3784.095180749893
5095,3784.79017829895
5096,3785.4851756095886
5097,3786.1811730861664
5098,3786.8701705932617
5099,3787.556168079376
5100,3788.244165658951
5101,3788.9241631031036
5102,3789.6361606121063
5103,3790.3531579971313
5104,3791.060155391693
5105,3791.7581527233124
5106,3792.459150314331
5107,3793.1781475543976
5108,3793.9121448993683
5109,3794.6691420078278
5110,3795.4381392002106
5111,3796.188136577606
5112,3796.941133737564
5113,3797.712131023407
5114,3798.4901282787323
5115,3799.268125295639
5116,3800.045122385025
5117,3800.814119577408
5118,3801.568116903305
5119,3802.3161141872406
5120,3803.07511138916
5121,3803.831108570099
5122,3804.6031057834625
5123,3805.389102935791
5124,3806.192100048065
5125,3806.9790971279144
5126,3807.775094270706
5127,3808.5540914535522
5128,3809.345088481903
5129,3810.143085718155
5130,3810.9340827465057
5131,3811.7220797538757
5132,3812.5090770721436
5133,3813.2890741825104
5134,3814.0770711898804
5135,3814.8810682296753
5136,3815.6860654354095
5137,3816.484062433243
5138,3817.279059648514
5139,3818.0650568008423
5140,3818.856053829193
5141,3819.658050775528
5142,3820.462047815323
5143,3821.273045063019
5144,3822.084042072296
5145,3822.8870391845703
5146,3823.6800360679626
5147,3824.4760332107544
5148,3825.2690303325653
5149,3826.062027454376
5150,3826.8630244731903
5151,3827.672021627426
5152,3828.492018699646
5153,3829.2860157489777
5154,3830.0760128498077
5155,3830.868010044098
