,ECG_peaks
0,0.0
1,0.7200026512145996
2,1.4410054683685303
3,2.171008348464966
4,2.919011354446411
5,3.694014310836792
6,4.476017475128174
7,5.279020547866821
8,6.062023639678955
9,6.896026849746704
10,7.738030195236206
11,8.571033477783203
12,9.397036790847778
13,10.212039947509766
14,11.009042978286743
15,11.780045986175537
16,12.554049015045166
17,13.320052146911621
18,14.059054851531982
19,14.793057918548584
20,15.52906060218811
21,16.313063859939575
22,17.105066776275635
23,17.88806986808777
24,18.701073169708252
25,19.45707607269287
26,20.179078817367554
27,20.91008186340332
28,21.614084482192993
29,22.336087465286255
30,23.085090398788452
31,23.845093250274658
32,24.606096267700195
33,25.345099210739136
34,26.06110191345215
35,26.769104719161987
36,27.442107439041138
37,28.07910990715027
38,28.725112438201904
39,29.405115127563477
40,30.108117818832397
41,30.823120594024658
42,31.576123476028442
43,32.36212658882141
44,33.15912961959839
45,33.94713282585144
46,34.70413565635681
47,35.469138860702515
48,36.21014165878296
49,36.92514443397522
50,37.64014720916748
51,38.34214997291565
52,39.0461528301239
53,39.74815559387207
54,40.471158266067505
55,41.21916127204895
56,41.98716425895691
57,42.778167486190796
58,43.58017039299011
59,44.39617371559143
60,45.18817687034607
61,45.960179805755615
62,46.71918272972107
63,47.45918560028076
64,48.188188552856445
65,48.90519142150879
66,49.647194147109985
67,50.40219712257385
68,51.16220021247864
69,51.91220307350159
70,52.68720626831055
71,53.4702091217041
72,54.247212171554565
73,55.021215200424194
74,55.778218269348145
75,56.53622126579285
76,57.28322410583496
77,58.01622700691223
78,58.739229917526245
79,59.44323253631592
80,60.14623546600342
81,60.817238092422485
82,61.47224044799805
83,62.15924334526062
84,62.853245973587036
85,63.54024863243103
86,64.21925139427185
87,64.91925406455994
88,65.62725687026978
89,66.35125970840454
90,67.07726240158081
91,67.8062653541565
92,68.55026817321777
93,69.28727102279663
94,70.01027393341064
95,70.73127675056458
96,71.45927953720093
97,72.1992826461792
98,72.94828534126282
99,73.69028830528259
100,74.42329120635986
101,75.13329410552979
102,75.84629678726196
103,76.56429958343506
104,77.29230237007141
105,78.03830528259277
106,78.82430839538574
107,79.64131164550781
108,80.38931465148926
109,81.06431722640991
110,81.80932021141052
111,82.5223228931427
112,83.24732565879822
113,83.989328622818
114,84.74133157730103
115,85.46533441543579
116,86.12733697891235
117,86.83833980560303
118,87.56934261322021
119,88.27934551239014
120,88.92834806442261
121,89.56535053253174
122,90.23535323143005
123,90.90635585784912
124,91.58535838127136
125,92.24436092376709
126,92.88736343383789
127,93.58136630058289
128,94.26936888694763
129,94.95937156677246
130,95.63437414169312
131,96.28737688064575
132,96.93437933921814
133,97.5343816280365
134,98.12638401985168
135,98.71938633918762
136,99.30938863754272
137,99.88939094543457
138,100.47039318084717
139,101.04339551925659
140,101.61239767074585
141,102.17739987373352
142,102.73640203475952
143,103.29040431976318
144,103.83940625190735
145,104.38740849494934
146,104.92841053009033
147,105.46741271018982
148,106.00441479682922
149,106.54041695594788
150,107.07441902160645
151,107.60442113876343
152,108.13942313194275
153,108.67342519760132
154,109.20942735671997
155,109.7474296092987
156,110.28543162345886
157,110.83143377304077
158,111.39143586158752
159,111.95143818855286
160,112.49844026565552
161,113.08044242858887
162,113.75344514846802
163,114.44344782829285
164,115.14645051956177
165,115.82545328140259
166,116.49045586585999
167,117.15645837783813
168,117.83146119117737
169,118.48946380615234
170,119.11846613883972
171,119.72746849060059
172,120.31947088241577
173,120.90447306632996
174,121.49247550964355
175,122.09247779846191
176,122.71148014068604
177,123.34048271179199
178,123.97648525238037
179,124.62848782539368
180,125.29249024391174
181,125.9614930152893
182,126.64349555969238
183,127.32649827003479
184,128.01150107383728
185,128.69150352478027
186,129.34250617027283
187,129.97450876235962
188,130.64951133728027
189,131.3395140171051
190,132.01851677894592
191,132.67951917648315
192,133.33652186393738
193,134.0305244922638
194,134.73752737045288
195,135.4625301361084
196,136.00453233718872
197,136.85553550720215
198,137.53353834152222
199,138.2115409374237
200,138.88654351234436
201,139.5725462436676
202,140.2725489139557
203,140.9955518245697
204,141.73455476760864
205,142.48555755615234
206,143.23656058311462
207,143.9785635471344
208,144.71156644821167
209,145.4165689945221
210,146.10457181930542
211,146.77657437324524
212,147.44257712364197
213,148.1015796661377
214,148.76758217811584
215,149.4365849494934
216,150.11758756637573
217,150.81459021568298
218,151.52759313583374
219,152.26159596443176
220,152.95459866523743
221,153.6386013031006
222,154.35560417175293
223,155.0776069164276
224,155.79860973358154
225,156.49961256980896
226,157.17061519622803
227,157.84261775016785
228,158.51162028312683
229,159.18562293052673
230,159.88262581825256
231,160.61162853240967
232,161.3546314239502
233,162.10263442993164
234,162.83163738250732
235,163.54563999176025
236,164.26164293289185
237,164.97264575958252
238,165.68064832687378
239,166.38265109062195
240,167.0756537914276
241,167.75765657424927
242,168.43765926361084
243,169.1106617450714
244,169.77966451644897
245,170.4516670703888
246,171.13066983222961
247,171.81567239761353
248,172.5046751499176
249,173.2006778717041
250,173.892680644989
251,174.58468317985535
252,175.27868604660034
253,175.971688747406
254,176.66669154167175
255,177.36169409751892
256,178.0596969127655
257,178.77069973945618
258,179.4937024116516
259,180.22370529174805
260,180.95370817184448
261,181.6767110824585
262,182.38971376419067
263,183.1017165184021
264,183.80771946907043
265,184.49772214889526
266,185.18572473526
267,185.8707275390625
268,186.55873012542725
269,187.2317328453064
270,187.89573526382446
271,188.5617380142212
272,189.2377405166626
273,189.89974331855774
274,190.56774592399597
275,191.22474837303162
276,191.87975096702576
277,192.53575348854065
278,193.1867561340332
279,193.83675861358643
280,194.48676109313965
281,195.12676358222961
282,195.75776624679565
283,196.3837685585022
284,197.00677108764648
285,197.6257734298706
286,198.2397758960724
287,198.8477783203125
288,199.45478057861328
289,200.0587830543518
290,200.6507852077484
291,201.23278760910034
292,201.79578971862793
293,202.34879183769226
294,202.897794008255
295,203.44079613685608
296,203.98479843139648
297,204.53680062294006
298,205.0988028049469
299,205.67480492591858
300,206.27480721473694
301,206.8998098373413
302,207.5448122024536
303,208.21981501579285
304,208.89981770515442
305,209.59782028198242
306,210.28182291984558
307,210.9478256702423
308,211.59882807731628
309,212.28383088111877
310,212.98183345794678
311,213.6738362312317
312,214.34483885765076
313,215.03584170341492
314,215.75184440612793
315,216.45684719085693
316,217.18784999847412
317,217.92185282707214
318,218.647855758667
319,219.3748586177826
320,220.08986139297485
321,220.81686425209045
322,221.53886699676514
323,222.24786972999573
324,222.96887254714966
325,223.68787550926208
326,224.40887832641602
327,225.13888120651245
328,225.87488412857056
329,226.60888695716858
330,227.31788969039917
331,228.05489253997803
332,228.77789545059204
333,229.51589822769165
334,230.27090120315552
335,231.03690433502197
336,231.80790734291077
337,232.5729103088379
338,233.32791328430176
339,234.08991622924805
340,234.84591913223267
341,235.59992218017578
342,236.35092496871948
343,237.09492802619934
344,237.83593082427979
345,238.5809338092804
346,239.33393669128418
347,240.0859396457672
348,240.82194256782532
349,241.5399453639984
350,242.28994822502136
351,243.05295133590698
352,243.8219542503357
353,244.58195734024048
354,245.34296011924744
355,246.1179633140564
356,246.87696623802185
357,247.6139690876007
358,248.34397196769714
359,249.0769748687744
360,249.8169777393341
361,250.5679807662964
362,251.29898357391357
363,252.03698635101318
364,252.79498934745789
365,253.56099247932434
366,254.31699538230896
367,255.0709981918335
368,255.83300137519836
369,256.59300422668457
370,257.3560073375702
371,258.1140103340149
372,258.85101318359375
373,259.5990159511566
374,260.3370189666748
375,261.0570216178894
376,261.8060245513916
377,262.5640275478363
378,263.311030626297
379,264.06603360176086
380,264.8380365371704
381,265.60603952407837
382,266.3600425720215
383,267.114045381546
384,267.8730483055115
385,268.62405133247375
386,269.37505435943604
387,270.1080572605133
388,270.8550601005554
389,271.6040630340576
390,272.3480658531189
391,273.1110689640045
392,273.8780720233917
393,274.6460750102997
394,275.4090778827667
395,276.17008090019226
396,276.94308400154114
397,277.7060868740082
398,278.4670898914337
399,279.22109293937683
400,279.97209572792053
401,280.69709849357605
402,281.44010162353516
403,282.1981043815613
404,282.9411072731018
405,283.6861102581024
406,284.45611333847046
407,285.21811628341675
408,285.9601192474365
409,286.70812225341797
410,287.46312499046326
411,288.22112798690796
412,288.962131023407
413,289.7161338329315
414,290.4721369743347
415,291.23713994026184
416,291.9761426448822
417,292.72414565086365
418,293.4671485424042
419,294.21315145492554
420,294.95815443992615
421,295.72715735435486
422,296.50316047668457
423,297.2791635990143
424,298.0461664199829
425,298.79016947746277
426,299.5581724643707
427,300.3291754722595
428,301.10117840766907
429,301.8551814556122
430,302.6171844005585
431,303.3821873664856
432,304.1381902694702
433,304.862193107605
434,305.62219619750977
435,306.3871991634369
436,307.1712021827698
437,307.9472053050995
438,308.7072081565857
439,309.48621129989624
440,310.2612142562866
441,311.00921726226807
442,311.7812201976776
443,312.54722332954407
444,313.3232262134552
445,314.0722291469574
446,314.85823225975037
447,315.63823533058167
448,316.41523838043213
449,317.18024134635925
450,317.9572443962097
451,318.737247467041
452,319.52025055885315
453,320.27625346183777
454,321.02925658226013
455,321.78325939178467
456,322.54126238822937
457,323.2802653312683
458,324.04526829719543
459,324.81427121162415
460,325.57727432250977
461,326.31727719306946
462,327.0852801799774
463,327.8562831878662
464,328.6142861843109
465,329.36228919029236
466,330.1252920627594
467,330.8922951221466
468,331.6502981185913
469,332.408301115036
470,333.17630410194397
471,333.94730710983276
472,334.7013099193573
473,335.4283127784729
474,336.1883158683777
475,336.93831872940063
476,337.6953217983246
477,338.44332456588745
478,339.19432759284973
479,339.956330537796
480,340.7203335762024
481,341.4673364162445
482,342.2303395271301
483,343.0023424625397
484,343.7813456058502
485,344.53134846687317
486,345.3033514022827
487,346.0853545665741
488,346.8413574695587
489,347.58036041259766
490,348.3303632736206
491,349.06936621665955
492,349.8043692111969
493,350.533371925354
494,351.2803747653961
495,352.05437779426575
496,352.84838104248047
497,353.64338421821594
498,354.43838715553284
499,355.23639035224915
500,356.0223934650421
501,356.78339648246765
502,357.5513994693756
503,358.31240248680115
504,359.1024055480957
505,359.8884086608887
506,360.7044117450714
507,361.5354149341583
508,362.34041810035706
509,363.1494212150574
510,363.96642446517944
511,364.78242778778076
512,365.58643078804016
513,366.34843397140503
514,367.1144368648529
515,367.8744397163391
516,368.6344428062439
517,369.3764457702637
518,370.1154487133026
519,370.8774516582489
520,371.64745450019836
521,372.43845772743225
522,373.22046065330505
523,374.0044639110565
524,374.7954668998718
525,375.5724699497223
526,376.34747290611267
527,377.11547589302063
528,377.85447883605957
529,378.6064817905426
530,379.35448479652405
531,380.1094877719879
532,380.8624906539917
533,381.624493598938
534,382.3744966983795
535,383.1234996318817
536,383.89050245285034
537,384.6605055332184
538,385.4255084991455
539,386.17751145362854
540,386.92651438713074
541,387.677517414093
542,388.4375202655792
543,389.1835231781006
544,389.9395260810852
545,390.7025291919708
546,391.46953225135803
547,392.22353506088257
548,392.97453808784485
549,393.7315409183502
550,394.48854398727417
551,395.2235469818115
552,395.96154975891113
553,396.7075526714325
554,397.45755553245544
555,398.18955850601196
556,398.93356132507324
557,399.68756437301636
558,400.46056747436523
559,401.22957038879395
560,402.0035734176636
561,402.77657651901245
562,403.5435793399811
563,404.28958225250244
564,405.0295853614807
565,405.7755882740021
566,406.5185911655426
567,407.2495939731598
568,408.0075969696045
569,408.7655999660492
570,409.52260279655457
571,410.26060581207275
572,411.0066087245941
573,411.7636115550995
574,412.5236146450043
575,413.27861762046814
576,414.0006203651428
577,414.7156231403351
578,415.4406259059906
579,416.16862893104553
580,416.88263154029846
581,417.62263464927673
582,418.33663725852966
583,419.0206401348114
584,419.68464255332947
585,420.3416452407837
586,421.0086479187012
587,421.69765043258667
588,422.41265320777893
589,423.13965606689453
590,423.86765909194946
591,424.6046619415283
592,425.34966468811035
593,426.0956676006317
594,426.8246705532074
595,427.55967354774475
596,428.29767632484436
597,429.0216791629791
598,429.740681886673
599,430.4856848716736
600,431.2396879196167
601,432.00969076156616
602,432.7636938095093
603,433.52269673347473
604,434.28769969940186
605,435.0377027988434
606,435.7697055339813
607,436.5117084980011
608,437.2537114620209
609,437.99771428108215
610,438.7327172756195
611,439.48672008514404
612,440.254723072052
613,441.0397262573242
614,441.82272934913635
615,442.589732170105
616,443.37173533439636
617,444.15573835372925
618,444.9297413825989
619,445.6637442111969
620,446.3827471733093
621,447.1067500114441
622,447.8267526626587
623,448.57075572013855
624,449.28875851631165
625,450.03776144981384
626,450.80276441574097
627,451.59076738357544
628,452.3657705783844
629,453.1537735462189
630,453.94677662849426
631,454.73777985572815
632,455.4857828617096
633,456.23178577423096
634,456.9777886867523
635,457.72979164123535
636,458.4687943458557
637,459.20079731941223
638,459.9668002128601
639,460.7338032722473
640,461.502806186676
641,462.2448091506958
642,462.98381209373474
643,463.74181509017944
644,464.48181796073914
645,465.22882080078125
646,465.9478237628937
647,466.6548264026642
648,467.3708293437958
649,468.10383224487305
650,468.8408350944519
651,469.5678379535675
652,470.31784081459045
653,471.0728437900543
654,471.82084679603577
655,472.56284952163696
656,473.31885266304016
657,474.07885551452637
658,474.83885860443115
659,475.5728614330292
660,476.29886412620544
661,477.05686712265015
662,477.8028700351715
663,478.57687306404114
664,479.3358759880066
665,480.1008791923523
666,480.86688208580017
667,481.63988518714905
668,482.3948881626129
669,483.11389088630676
670,483.8588938713074
671,484.5998966693878
672,485.3418996334076
673,486.0779025554657
674,486.82590532302856
675,487.58190846443176
676,488.3489112854004
677,489.093914270401
678,489.83991718292236
679,490.5839202404022
680,491.3059229850769
681,492.0289258956909
682,492.7529284954071
683,493.47693133354187
684,494.20193433761597
685,494.9119369983673
686,495.64193987846375
687,496.38294291496277
688,497.11594557762146
689,497.82494854927063
690,498.48795104026794
691,499.1149535179138
692,499.75895595550537
693,500.41895866394043
694,501.098961353302
695,501.7789640426636
696,502.45896649360657
697,503.1189692020416
698,503.79097175598145
699,504.4489743709564
700,505.10997700691223
701,505.77997970581055
702,506.4369821548462
703,507.12998485565186
704,507.82398772239685
705,508.4769902229309
706,509.1069927215576
707,509.7469952106476
708,510.3899977207184
709,511.0260000228882
710,511.66800260543823
711,512.3140051364899
712,512.9640076160431
713,513.5950102806091
714,514.0430119037628
715,514.8600151538849
716,515.4990177154541
717,516.1330201625824
718,516.7360224723816
719,517.3280248641968
720,517.9120271205902
721,518.4990293979645
722,519.0980317592621
723,519.6970341205597
724,520.3170363903046
725,520.9570391178131
726,521.5880415439606
727,522.2310440540314
728,522.8670465946198
729,523.5090489387512
730,524.1340515613556
731,524.7530539035797
732,525.3650562763214
733,525.964058637619
734,526.552060842514
735,527.1350631713867
736,527.7080655097961
737,528.2750675678253
738,528.8350698947906
739,529.388072013855
740,529.9350740909576
741,530.4750761985779
742,531.0080783367157
743,531.5360803604126
744,532.0560824871063
745,532.5700845718384
746,533.081086397171
747,533.5880885124207
748,534.08909034729
749,534.5880923271179
750,535.084094285965
751,535.5780961513519
752,536.0680980682373
753,536.5571000576019
754,537.0421018600464
755,537.5271039009094
756,538.0081057548523
757,538.4891076087952
758,538.9671094417572
759,539.4451112747192
760,539.9211132526398
761,540.3971149921417
762,540.8721170425415
763,541.3491187095642
764,541.8251206874847
765,542.3041224479675
766,542.7831244468689
767,543.263126373291
768,543.7441282272339
769,544.2231299877167
770,544.7031319141388
771,545.1821339130402
772,545.661135673523
773,546.139137506485
774,546.617139339447
775,547.0961413383484
776,547.5751430988312
777,548.0561451911926
778,548.5371470451355
779,549.0191488265991
780,549.4991507530212
781,549.9801526069641
782,550.461154460907
783,550.8771560192108
784,551.4151582717896
785,551.8981602191925
786,552.3771619796753
787,552.8551638126373
788,553.3341658115387
789,553.7481672763824
790,554.2881693840027
791,554.7711713314056
792,555.2131731510162
793,555.7271749973297
794,556.2101769447327
795,556.6901788711548
796,557.1691806316376
797,557.6491825580597
798,558.1281845569611
799,558.6071863174438
800,559.0861883163452
801,559.5681900978088
802,560.0491919517517
803,560.5351939201355
804,561.02219581604
805,561.5081977844238
806,561.9971995353699
807,562.4822015762329
808,562.9672033786774
809,563.4512052536011
810,563.9332072734833
811,564.4152090549469
812,564.8972110748291
813,565.3772127628326
814,565.8582148551941
815,566.3382165431976
816,566.8202185630798
817,567.300220489502
818,567.7792222499847
819,568.2572240829468
820,568.7332260608673
821,569.2092278003693
822,569.6842296123505
823,570.1582314968109
824,570.6342334747314
825,571.1102352142334
826,571.5872371196747
827,572.066239118576
828,572.5452408790588
829,573.025242805481
830,573.5072445869446
831,573.9852466583252
832,574.4692485332489
833,574.9492502212524
834,575.4312522411346
835,575.9112541675568
836,576.3852560520172
837,576.8572578430176
838,577.3262596130371
839,577.7942614555359
840,578.2602632045746
841,578.7272651195526
842,579.1942670345306
843,579.6602687835693
844,580.1212706565857
845,580.5842723846436
846,581.0442740917206
847,581.5032761096954
848,581.9582777023315
849,582.421279668808
850,582.8752813339233
851,583.328283071518
852,583.7822849750519
853,584.2332866191864
854,584.6832883358002
855,585.1312901973724
856,585.5772919654846
857,586.0222935676575
858,586.4662954807281
859,586.911297082901
860,587.3532989025116
861,587.8003005981445
862,588.2473022937775
863,588.6983041763306
864,589.154305934906
865,589.6113076210022
866,590.0753095149994
867,590.535311460495
868,590.9973132610321
869,591.4653148651123
870,591.9403169155121
871,592.4283187389374
872,592.9333207607269
873,593.4743227958679
874,594.0513250827789
875,594.6543273925781
876,595.2793300151825
877,595.9203324317932
878,596.5903351306915
879,597.2563376426697
880,597.9393403530121
881,598.6123430728912
882,599.2953455448151
883,599.9543483257294
884,600.6233508586884
885,601.3003535270691
886,601.9903562068939
887,602.6993589401245
888,603.4223618507385
889,604.1533646583557
890,604.8913674354553
891,605.6363704204559
892,606.377373456955
893,607.1273763179779
894,607.8853793144226
895,608.6323821544647
896,609.3853850364685
897,610.1403880119324
898,610.8893909454346
899,611.6433939933777
900,612.389396905899
901,613.1313998699188
902,613.8724026679993
903,614.6104056835175
904,615.3454084396362
905,616.1044113636017
906,616.8724143505096
907,617.6534175872803
908,618.4324204921722
909,619.2274236679077
910,619.9984266757965
911,620.7564296722412
912,621.5034325122833
913,622.2494354248047
914,622.9934384822845
915,623.7314412593842
916,624.4584441184998
917,625.1664469242096
918,625.8764495849609
919,626.6164524555206
920,627.3504555225372
921,628.0974583625793
922,628.8524613380432
923,629.6124641895294
924,630.3414671421051
925,631.0184698104858
926,631.6774723529816
927,632.2944748401642
928,632.9214773178101
929,633.5934798717499
930,634.3054826259613
931,635.0434856414795
932,635.802488565445
933,636.5714914798737
934,637.3414945602417
935,638.1044974327087
936,638.8625004291534
937,639.6095035076141
938,640.3585064411163
939,641.1185092926025
940,641.8765122890472
941,642.6385152339935
942,643.4105184078217
943,644.1885213851929
944,644.9605243206024
945,645.7145273685455
946,646.4425301551819
947,647.1745331287384
948,647.9105358123779
949,648.6555387973785
950,649.4185419082642
951,650.1995449066162
952,650.9895479679108
953,651.774551153183
954,652.5645542144775
955,653.3465571403503
956,654.1215603351593
957,654.8845632076263
958,655.6325662136078
959,656.3605690002441
960,657.1005718708038
961,657.8425748348236
962,658.5915777683258
963,659.3465807437897
964,660.0975835323334
965,660.8265864849091
966,661.5745894908905
967,662.3255922794342
968,663.0685951709747
969,663.783597946167
970,664.4906008243561
971,665.2216036319733
972,665.9526064395905
973,666.6656093597412
974,667.360612154007
975,668.0326147079468
976,668.7426173686981
977,669.4796204566956
978,670.238623380661
979,670.9916262626648
980,671.7166290283203
981,672.45663189888
982,673.1926348209381
983,673.9396378993988
984,674.6766407489777
985,675.3896434307098
986,676.1126463413239
987,676.8406491279602
988,677.58265209198
989,678.3206548690796
990,679.0426578521729
991,679.7856607437134
992,680.5346636772156
993,681.2926666736603
994,682.0416696071625
995,682.7806723117828
996,683.5216753482819
997,684.2596781253815
998,684.9586808681488
999,685.6516835689545
1000,686.3566863536835
1001,687.0806891918182
1002,687.7566919326782
1003,688.4396946430206
1004,689.1006970405579
1005,689.7356996536255
1006,690.397702217102
1007,691.0947048664093
1008,691.8227078914642
1009,692.539710521698
1010,693.2487132549286
1011,693.9647161960602
1012,694.6847190856934
1013,695.4057219028473
1014,696.1207246780396
1015,696.8457274436951
1016,697.5867302417755
1017,698.3327331542969
1018,699.0897362232208
1019,699.8597393035889
1020,700.6347422599792
1021,701.3917453289032
1022,702.1487481594086
1023,702.9047510623932
1024,703.6577541828156
1025,704.3957569599152
1026,705.1407599449158
1027,705.9177629947662
1028,706.699765920639
1029,707.4697690010071
1030,708.2617721557617
1031,709.0627753734589
1032,709.827778339386
1033,710.5637812614441
1034,711.3227841854095
1035,712.0797870159149
1036,712.8417899608612
1037,713.5867929458618
1038,714.3417959213257
1039,715.0987989902496
1040,715.8628017902374
1041,716.6178047657013
1042,717.3778078556061
1043,718.1548109054565
1044,718.9438140392303
1045,719.7208170890808
1046,720.5058200359344
1047,721.2998232841492
1048,722.0858261585236
1049,722.8498291969299
1050,723.6158323287964
1051,724.3848352432251
1052,725.1648383140564
1053,725.9308412075043
1054,726.6998443603516
1055,727.4888474941254
1056,728.2868504524231
1057,729.0608534812927
1058,729.8178565502167
1059,730.5918595790863
1060,731.3688626289368
1061,732.1448655128479
1062,732.887868642807
1063,733.6248714923859
1064,734.3858742713928
1065,735.1538774967194
1066,735.8898801803589
1067,736.6578831672668
1068,737.440886259079
1069,738.2278895378113
1070,738.9958925247192
1071,739.766895532608
1072,740.5388984680176
1073,741.3009014129639
1074,742.0419044494629
1075,742.7799072265625
1076,743.5219101905823
1077,744.2759130001068
1078,745.0329160690308
1079,745.8009190559387
1080,746.5879220962524
1081,747.3859252929688
1082,748.1729283332825
1083,748.9499313831329
1084,749.730934381485
1085,750.505937576294
1086,751.2599403858185
1087,752.0129432678223
1088,752.7899463176727
1089,753.5869495868683
1090,754.3729526996613
1091,755.1539556980133
1092,755.9479587078094
1093,756.7499618530273
1094,757.5299649238586
1095,758.3019680976868
1096,759.0859711170197
1097,759.8699741363525
1098,760.6349771022797
1099,761.398980140686
1100,762.1749832630157
1101,762.9619863033295
1102,763.7449893951416
1103,764.548992395401
1104,765.3739957809448
1105,766.185998916626
1106,766.9790019989014
1107,767.7780051231384
1108,768.5790083408356
1109,769.3530113697052
1110,770.1150143146515
1111,770.8880171775818
1112,771.6820204257965
1113,772.4630234241486
1114,773.2320263385773
1115,774.0150294303894
1116,774.8130326271057
1117,775.5980358123779
1118,776.3720388412476
1119,777.1490416526794
1120,777.9180448055267
1121,778.669047832489
1122,779.4080505371094
1123,780.1600534915924
1124,780.9270565509796
1125,781.7010595798492
1126,782.4800627231598
1127,783.2860658168793
1128,784.0980689525604
1129,784.8830721378326
1130,785.6630752086639
1131,786.4500782489777
1132,787.2340812683105
1133,787.9980843067169
1134,788.7600872516632
1135,789.5330903530121
1136,790.3140933513641
1137,791.0680961608887
1138,791.8120992183685
1139,792.5731022357941
1140,793.3361051082611
1141,794.0971081256866
1142,794.8731112480164
1143,795.6711142063141
1144,796.473117351532
1145,797.2561204433441
1146,798.0391235351562
1147,798.8331265449524
1148,799.6271297931671
1149,800.4011328220367
1150,801.1751358509064
1151,801.9481389522552
1152,802.7081418037415
1153,803.5011448860168
1154,804.3231480121613
1155,805.1591513156891
1156,805.9781546592712
1157,806.7841577529907
1158,807.6051609516144
1159,808.4321641921997
1160,809.2421674728394
1161,810.0241703987122
1162,810.8281736373901
1163,811.6521768569946
1164,812.4411799907684
1165,813.1981828212738
1166,813.9341857433319
1167,814.6551885604858
1168,815.4101915359497
1169,816.1971945762634
1170,817.0011978149414
1171,817.8012008666992
1172,818.6092040538788
1173,819.42320728302
1174,820.2372105121613
1175,821.035213470459
1176,821.8182165622711
1177,822.6222198009491
1178,823.4522230625153
1179,824.2992262840271
1180,825.1342296600342
1181,825.9842329025269
1182,826.8442363739014
1183,827.705239534378
1184,828.543242931366
1185,829.3632462024689
1186,830.1972494125366
1187,831.037252664566
1188,831.8612558841705
1189,832.6822590827942
1190,833.5242624282837
1191,834.322265625
1192,835.0572683811188
1193,835.7632710933685
1194,836.5022740364075
1195,837.2572770118713
1196,838.0562801361084
1197,838.8582832813263
1198,839.6372864246368
1199,840.3772892951965
1200,841.1092920303345
1201,841.8082947731018
1202,842.5062975883484
1203,843.2183003425598
1204,843.9583032131195
1205,844.7183063030243
1206,845.469309091568
1207,846.2543122768402
1208,847.0683155059814
1209,847.8813185691833
1210,848.6833217144012
1211,849.4673247337341
1212,850.258327960968
1213,851.0343308448792
1214,851.7843339443207
1215,852.5293369293213
1216,853.2813396453857
1217,854.0513427257538
1218,854.8143458366394
1219,855.5773487091064
1220,856.3683519363403
1221,857.1583549976349
1222,857.9623579978943
1223,858.7943613529205
1224,859.6283645629883
1225,860.4403676986694
1226,861.2423708438873
1227,862.0463740825653
1228,862.8433771133423
1229,863.6263802051544
1230,864.4213833808899
1231,865.2103865146637
1232,865.9883894920349
1233,866.7333924770355
1234,867.440395116806
1235,868.1413979530334
1236,868.8674006462097
1237,869.5954036712646
1238,870.3334064483643
1239,871.1054096221924
1240,871.8874125480652
1241,872.6744155883789
1242,873.4594187736511
1243,874.225421667099
1244,874.9804246425629
1245,875.752427816391
1246,876.533430814743
1247,877.3284339904785
1248,878.1104369163513
1249,878.8894400596619
1250,879.6864430904388
1251,880.4844462871552
1252,881.2694492340088
1253,882.0424523353577
1254,882.8314554691315
1255,883.6294584274292
1256,884.436461687088
1257,885.2274649143219
1258,886.039468050003
1259,886.8574712276459
1260,887.6684744358063
1261,888.4414772987366
1262,889.2214803695679
1263,890.0034835338593
1264,890.792486667633
1265,891.5794897079468
1266,892.393492937088
1267,893.219496011734
1268,894.0294992923737
1269,894.8245024681091
1270,895.5755052566528
1271,896.2885081768036
1272,896.9845108985901
1273,897.6905136108398
1274,898.410516500473
1275,899.1965193748474
1276,900.0475227832794
1277,900.9305262565613
1278,901.8205296993256
1279,902.6745331287384
1280,903.4505360126495
1281,904.1995389461517
1282,904.9555420875549
1283,905.718544960022
1284,906.4785480499268
1285,907.2295508384705
1286,907.9785537719727
1287,908.7115566730499
1288,909.4415595531464
1289,910.1735625267029
1290,910.9165654182434
1291,911.6275682449341
1292,912.3175709247589
1293,913.035573720932
1294,913.7905766963959
1295,914.5835797786713
1296,915.38858294487
1297,916.1825859546661
1298,916.9315888881683
1299,917.653591632843
1300,918.3665945529938
1301,919.0835974216461
1302,919.8156001567841
1303,920.5426030158997
1304,921.241605758667
1305,921.881608247757
1306,922.5226106643677
1307,923.1696133613586
1308,923.8546159267426
1309,924.5916187763214
1310,925.3596217632294
1311,926.1456248760223
1312,926.921627998352
1313,927.6696310043335
1314,928.4316339492798
1315,929.1896369457245
1316,929.9076397418976
1317,930.5996422767639
1318,931.2856450080872
1319,931.9666476249695
1320,932.653650522232
1321,933.3796532154083
1322,934.142656326294
1323,934.9376592636108
1324,935.7396624088287
1325,936.5146656036377
1326,937.2736685276031
1327,938.0486714839935
1328,938.8306746482849
1329,939.6216776371002
1330,940.4056806564331
1331,941.1756837368011
1332,941.9696869850159
1333,942.7786900997162
1334,943.6036932468414
1335,944.4316964149475
1336,945.2236995697021
1337,945.9987027645111
1338,946.7967057228088
1339,947.6097090244293
1340,948.4387121200562
1341,949.2727155685425
1342,950.078718662262
1343,950.8747217655182
1344,951.6937248706818
1345,952.5167281627655
1346,953.3477313518524
1347,954.1517345905304
1348,954.9497377872467
1349,955.7427408695221
1350,956.5467438697815
1351,957.3727471828461
1352,958.203750371933
1353,959.009753704071
1354,959.8007566928864
1355,960.6267600059509
1356,961.4667632579803
1357,962.3067665100098
1358,963.1307697296143
1359,963.9157726764679
1360,964.716775894165
1361,965.5117790699005
1362,966.3217821121216
1363,967.1347854137421
1364,967.9217884540558
1365,968.7027914524078
1366,969.5117948055267
1367,970.3247978687286
1368,971.146800994873
1369,971.9538042545319
1370,972.736807346344
1371,973.5388104915619
1372,974.348813533783
1373,975.1668167114258
1374,975.9768199920654
1375,976.7528231143951
1376,977.5248260498047
1377,978.2968289852142
1378,979.0738320350647
1379,979.8618352413177
1380,980.641838312149
1381,981.4038412570953
1382,982.1928443908691
1383,982.9858474731445
1384,983.7798504829407
1385,984.5718536376953
1386,985.3228566646576
1387,986.061859369278
1388,986.8078622817993
1389,987.5518653392792
1390,988.3038682937622
1391,989.0648713111877
1392,989.8038740158081
1393,990.531877040863
1394,991.2948799133301
1395,992.0718829631805
1396,992.866886138916
1397,993.6668891906738
1398,994.4358923435211
1399,995.1798951625824
1400,995.9118981361389
1401,996.656900882721
1402,997.4179039001465
1403,998.1979069709778
1404,998.9739100933075
1405,999.7359130382538
1406,1000.5099160671234
1407,1001.3079192638397
1408,1002.1189222335815
1409,1002.9269254207611
1410,1003.7039284706116
1411,1004.4749314785004
1412,1005.2569346427917
1413,1006.0399377346039
1414,1006.8279407024384
1415,1007.6179437637329
1416,1008.387946844101
1417,1009.1519498825073
1418,1009.9329528808594
1419,1010.7239561080933
1420,1011.5139591693878
1421,1012.3109622001648
1422,1013.0869653224945
1423,1013.8499681949615
1424,1014.615971326828
1425,1015.4009742736816
1426,1016.198977470398
1427,1017.0069806575775
1428,1017.8109836578369
1429,1018.5859868526459
1430,1019.3449897766113
1431,1020.1099927425385
1432,1020.8829958438873
1433,1021.6739988327026
1434,1022.4770019054413
1435,1023.2610051631927
1436,1024.0560081005096
1437,1024.8710112571716
1438,1025.6860146522522
1439,1026.4960176944733
1440,1027.2730207443237
1441,1028.0520238876343
1442,1028.839026927948
1443,1029.6270298957825
1444,1030.422033071518
1445,1031.1990361213684
1446,1031.9640390872955
1447,1032.7650423049927
1448,1033.5800454616547
1449,1034.4080486297607
1450,1035.2100517749786
1451,1035.99005484581
1452,1036.773057937622
1453,1037.5650610923767
1454,1038.3620641231537
1455,1039.15806722641
1456,1039.9380702972412
1457,1040.6970732212067
1458,1041.4720764160156
1459,1042.2580795288086
1460,1043.051082611084
1461,1043.8520855903625
1462,1044.6320886611938
1463,1045.399091720581
1464,1046.1840949058533
1465,1046.9750978946686
1466,1047.7751009464264
1467,1048.5751042366028
1468,1049.3431072235107
1469,1050.0941100120544
1470,1050.8541131019592
1471,1051.6171159744263
1472,1052.4061191082
1473,1053.2051222324371
1474,1053.9851253032684
1475,1054.7421283721924
1476,1055.478131055832
1477,1056.2311341762543
1478,1056.9981372356415
1479,1057.7491400241852
1480,1058.491142988205
1481,1059.2511458396912
1482,1060.02214884758
1483,1060.8061521053314
1484,1061.596155166626
1485,1062.3631582260132
1486,1063.1241610050201
1487,1063.9191641807556
1488,1064.7291674613953
1489,1065.5521705150604
1490,1066.367173910141
1491,1067.1451768875122
1492,1067.9051797389984
1493,1068.6741828918457
1494,1069.452185869217
1495,1070.2481889724731
1496,1071.0591921806335
1497,1071.849195241928
1498,1072.656198501587
1499,1073.4762015342712
1500,1074.3072049617767
1501,1075.1422080993652
1502,1075.963211297989
1503,1076.7452144622803
1504,1077.5232174396515
1505,1078.3092205524445
1506,1079.1162238121033
1507,1079.9232268333435
1508,1080.7122299671173
1509,1081.4922330379486
1510,1082.296236038208
1511,1083.1102392673492
1512,1083.9222424030304
1513,1084.7162456512451
1514,1085.471248626709
1515,1086.2172515392303
1516,1086.9742543697357
1517,1087.7352573871613
1518,1088.5132603645325
1519,1089.2802634239197
1520,1090.0322663784027
1521,1090.8002693653107
1522,1091.5862724781036
1523,1092.3802757263184
1524,1093.181278705597
1525,1093.9472818374634
1526,1094.6942846775055
1527,1095.4462876319885
1528,1096.203290462494
1529,1096.9792935848236
1530,1097.7622966766357
1531,1098.5362997055054
1532,1099.3133027553558
1533,1100.1113059520721
1534,1100.91330909729
1535,1101.7143120765686
1536,1102.4953153133392
1537,1103.2603182792664
1538,1104.032321214676
1539,1104.8073241710663
1540,1105.5923273563385
1541,1106.3743302822113
1542,1107.1333334445953
1543,1107.884336233139
1544,1108.6483392715454
1545,1109.4153423309326
1546,1110.1973452568054
1547,1110.978348493576
1548,1111.7493515014648
1549,1112.5243544578552
1550,1113.3223576545715
1551,1114.133360862732
1552,1114.9473638534546
1553,1115.7493669986725
1554,1116.5183701515198
1555,1117.267373085022
1556,1118.032376050949
1557,1118.8103790283203
1558,1119.6113822460175
1559,1120.430385351181
1560,1121.232388496399
1561,1122.004391670227
1562,1122.7503945827484
1563,1123.5153975486755
1564,1124.3064005374908
1565,1125.1114037036896
1566,1125.9214069843292
1567,1126.732409954071
1568,1127.5164132118225
1569,1128.275416135788
1570,1129.0524191856384
1571,1129.837422132492
1572,1130.6424252986908
1573,1131.4604284763336
1574,1132.2884318828583
1575,1133.0834348201752
1576,1133.8824379444122
1577,1134.6804411411285
1578,1135.4764442443848
1579,1136.2654473781586
1580,1137.0394504070282
1581,1137.810453414917
1582,1138.6034564971924
1583,1139.4074597358704
1584,1140.2214629650116
1585,1141.0324659347534
1586,1141.8054690361023
1587,1142.565472126007
1588,1143.3384749889374
1589,1144.125478029251
1590,1144.929481267929
1591,1145.7174844741821
1592,1146.5054874420166
1593,1147.332490682602
1594,1148.1754939556122
1595,1149.0264973640442
1596,1149.8485004901886
1597,1150.6635036468506
1598,1151.4775068759918
1599,1152.291510105133
1600,1153.1215133666992
1601,1153.9355165958405
1602,1154.7325196266174
1603,1155.5345227718353
1604,1156.3345258235931
1605,1157.1685292720795
1606,1158.034532546997
1607,1158.8905358314514
1608,1159.7595393657684
1609,1160.6355428695679
1610,1161.4985461235046
1611,1162.3505494594574
1612,1163.1725525856018
1613,1163.9535558223724
1614,1164.7505588531494
1615,1165.560562133789
1616,1166.389565229416
1617,1167.1925685405731
1618,1167.9645714759827
1619,1168.6865742206573
1620,1169.415577173233
1621,1170.1435799598694
1622,1170.8695828914642
1623,1171.624585866928
1624,1172.3875887393951
1625,1173.1285917758942
1626,1173.8385944366455
1627,1174.5315971374512
1628,1175.2045998573303
1629,1175.8676023483276
1630,1176.5596051216125
1631,1177.2586078643799
1632,1177.9676105976105
1633,1178.7116134166718
1634,1179.494616508484
1635,1180.3066198825836
1636,1181.1296229362488
1637,1181.9606261253357
1638,1182.7856295108795
1639,1183.6036326885223
1640,1184.3826358318329
1641,1185.1666388511658
1642,1185.9436419010162
1643,1186.7296450138092
1644,1187.5356481075287
1645,1188.3586511611938
1646,1189.2056546211243
1647,1190.068657875061
1648,1190.8926610946655
1649,1191.71866440773
1650,1192.5296676158905
1651,1193.288670539856
1652,1194.0036733150482
1653,1194.7066762447357
1654,1195.4056787490845
1655,1196.1206817626953
1656,1196.8336844444275
1657,1197.5176870822906
1658,1198.205689907074
1659,1198.8966925144196
1660,1199.561695098877
1661,1200.2636978626251
1662,1200.973700761795
1663,1201.7137036323547
1664,1202.4607064723969
1665,1203.2267093658447
1666,1204.0097124576569
1667,1204.7887156009674
1668,1205.5647187232971
1669,1206.3207216262817
1670,1207.0817246437073
1671,1207.8337275981903
1672,1208.5917303562164
1673,1209.3537335395813
1674,1210.0987362861633
1675,1210.8657393455505
1676,1211.6357424259186
1677,1212.399745464325
1678,1213.1247482299805
1679,1213.8357510566711
1680,1214.5557537078857
1681,1215.2827565670013
1682,1216.0267596244812
1683,1216.7867624759674
1684,1217.5237653255463
1685,1218.249768257141
1686,1218.991771221161
1687,1219.7297739982605
1688,1220.4587769508362
1689,1221.182779788971
1690,1221.9377827644348
1691,1222.7077858448029
1692,1223.488788843155
1693,1224.2617917060852
1694,1224.9997947216034
1695,1225.742797613144
1696,1226.473800420761
1697,1227.1968033313751
1698,1227.9128060340881
1699,1228.6038088798523
1700,1229.3088116645813
1701,1230.0208144187927
1702,1230.7428171634674
1703,1231.4798200130463
1704,1232.226823091507
1705,1232.9818258285522
1706,1233.728828907013
1707,1234.4778318405151
1708,1235.2288346290588
1709,1235.9768376350403
1710,1236.7208406925201
1711,1237.4438433647156
1712,1238.175846338272
1713,1238.9188492298126
1714,1239.6888523101807
1715,1240.481855392456
1716,1241.2548582553864
1717,1242.051861524582
1718,1242.848864555359
1719,1243.649867773056
1720,1244.4528708457947
1721,1245.24387383461
1722,1246.036877155304
1723,1246.835880279541
1724,1247.6368832588196
1725,1248.4228863716125
1726,1249.1828894615173
1727,1249.9798924922943
1728,1250.7938957214355
1729,1251.6218988895416
1730,1252.4549021720886
1731,1253.2399051189423
1732,1254.0149083137512
1733,1254.8089113235474
1734,1255.5939145088196
1735,1256.3889174461365
1736,1257.172920703888
1737,1257.9439237117767
1738,1258.7569267749786
1739,1259.585930109024
1740,1260.4219334125519
1741,1261.2489366531372
1742,1262.0499396324158
1743,1262.8499429225922
1744,1263.6569459438324
1745,1264.4559490680695
1746,1265.229952096939
1747,1266.013955116272
1748,1266.8219583034515
1749,1267.6289615631104
1750,1268.4239647388458
1751,1269.1779675483704
1752,1269.9419705867767
1753,1270.726973772049
1754,1271.5339767932892
1755,1272.3429799079895
1756,1273.1389830112457
1757,1273.9669864177704
1758,1274.7849895954132
1759,1275.5799927711487
1760,1276.3799958229065
1761,1277.1829988956451
1762,1277.9840021133423
1763,1278.755005121231
1764,1279.539008140564
1765,1280.3280112743378
1766,1281.1130142211914
1767,1281.8700172901154
1768,1282.5960202217102
1769,1283.2980229854584
1770,1284.0090255737305
1771,1284.7270283699036
1772,1285.49303150177
1773,1286.2820346355438
1774,1287.0830376148224
1775,1287.8690407276154
1776,1288.616043806076
1777,1289.343046426773
1778,1290.0810494422913
1779,1290.8320524692535
1780,1291.6110553741455
1781,1292.4160585403442
1782,1293.1990616321564
1783,1294.0010647773743
1784,1294.8090679645538
1785,1295.621071100235
1786,1296.4100742340088
1787,1297.177077293396
1788,1297.9680802822113
1789,1298.7620832920074
1790,1299.5650866031647
1791,1300.3710896968842
1792,1301.1570928096771
1793,1301.9630959033966
1794,1302.7700991630554
1795,1303.5841023921967
1796,1304.375105381012
1797,1305.1461083889008
1798,1305.9381115436554
1799,1306.7451145648956
1800,1307.5521178245544
1801,1308.3351209163666
1802,1309.1501240730286
1803,1309.9681272506714
1804,1310.7861304283142
1805,1311.5941336154938
1806,1312.374136686325
1807,1313.176139831543
1808,1313.970142841339
1809,1314.745146036148
1810,1315.5051488876343
1811,1316.292151927948
1812,1317.0821552276611
1813,1317.8831582069397
1814,1318.6781613826752
1815,1319.4321644306183
1816,1320.1621670722961
1817,1320.8841700553894
1818,1321.6101727485657
1819,1322.3361756801605
1820,1323.0581784248352
1821,1323.7471811771393
1822,1324.4071838855743
1823,1325.0761864185333
1824,1325.7461891174316
1825,1326.4121916294098
1826,1327.051194190979
1827,1327.6701965332031
1828,1328.2861988544464
1829,1328.8982014656067
1830,1329.5132038593292
1831,1330.1372063159943
1832,1330.7562086582184
1833,1331.3752110004425
1834,1331.9942135810852
1835,1332.599215745926
1836,1333.22021818161
1837,1333.8402206897736
1838,1334.4592230319977
1839,1335.127225637436
1840,1335.8312284946442
1841,1336.557231426239
1842,1337.2842342853546
1843,1338.0222370624542
1844,1338.7382397651672
1845,1339.449242591858
1846,1340.172245502472
1847,1340.9072482585907
1848,1341.6442513465881
1849,1342.358253955841
1850,1343.0782568454742
1851,1343.7952597141266
1852,1344.5162625312805
1853,1345.2242653369904
1854,1345.9182679653168
1855,1346.6322708129883
1856,1347.3732736110687
1857,1348.1332767009735
1858,1348.8992795944214
1859,1349.6582825183868
1860,1350.4292855262756
1861,1351.2122886180878
1862,1351.9932918548584
1863,1352.776294708252
1864,1353.5442979335785
1865,1354.2913007736206
1866,1354.9883034229279
1867,1355.6423060894012
1868,1356.2803084850311
1869,1356.923310995102
1870,1357.5973136425018
1871,1358.3073165416718
1872,1359.0153193473816
1873,1359.7103219032288
1874,1360.4073247909546
1875,1361.09632730484
1876,1361.80833029747
1877,1362.5303330421448
1878,1363.2663359642029
1879,1364.0203387737274
1880,1364.7843418121338
1881,1365.5503449440002
1882,1366.303347826004
1883,1367.0253505706787
1884,1367.763353586197
1885,1368.497356414795
1886,1369.231359243393
1887,1369.9683620929718
1888,1370.7073650360107
1889,1371.4413678646088
1890,1372.1633706092834
1891,1372.8813734054565
1892,1373.6033763885498
1893,1374.3253791332245
1894,1375.0533819198608
1895,1375.7703847885132
1896,1376.4683876037598
1897,1377.1933903694153
1898,1377.922393321991
1899,1378.6503961086273
1900,1379.3543989658356
1901,1380.0364015102386
1902,1380.7454042434692
1903,1381.4574069976807
1904,1382.1654098033905
1905,1382.8734126091003
1906,1383.600415468216
1907,1384.3394184112549
1908,1385.0504212379456
1909,1385.7534239292145
1910,1386.4754266738892
1911,1387.1924295425415
1912,1387.8804321289062
1913,1388.5634348392487
1914,1389.2484376430511
1915,1389.9444403648376
1916,1390.6164429187775
1917,1391.3174457550049
1918,1392.012448310852
1919,1392.6914510726929
1920,1393.3474535942078
1921,1394.0344562530518
1922,1394.725459098816
1923,1395.38046169281
1924,1396.0424642562866
1925,1396.7094666957855
1926,1397.371469259262
1927,1398.0264718532562
1928,1398.6614744663239
1929,1399.3044769763947
1930,1399.9484794139862
1931,1400.591481924057
1932,1401.2224843502045
1933,1401.8494868278503
1934,1402.4854893684387
1935,1403.1284918785095
1936,1403.7744944095612
1937,1404.4094970226288
1938,1405.0504994392395
1939,1405.6955020427704
1940,1406.3505046367645
1941,1407.0005071163177
1942,1407.639509677887
1943,1408.2845120429993
1944,1408.9255146980286
1945,1409.5715172290802
1946,1410.20951962471
1947,1410.8325221538544
1948,1411.4625244140625
1949,1412.09552693367
1950,1412.7455296516418
1951,1413.3975319862366
1952,1414.0505347251892
1953,1414.7105371952057
1954,1415.378539800644
1955,1416.036542415619
1956,1416.6855449676514
1957,1417.3415474891663
1958,1417.9995501041412
1959,1418.6455526351929
1960,1419.2865550518036
1961,1419.9395577907562
1962,1420.6105604171753
1963,1421.3095631599426
1964,1421.990565776825
1965,1422.6685683727264
1966,1423.353571176529
1967,1424.0465738773346
1968,1424.7125763893127
1969,1425.362578868866
1970,1426.0185813903809
1971,1426.6775841712952
1972,1427.3505866527557
1973,1428.0065891742706
1974,1428.6705918312073
1975,1429.3545944690704
1976,1430.0625972747803
1977,1430.744600057602
1978,1431.4326026439667
1979,1432.136605501175
1980,1432.836608171463
1981,1433.505610704422
1982,1434.1696133613586
1983,1434.8406159877777
1984,1435.526618719101
1985,1436.1936213970184
1986,1436.8606238365173
1987,1437.5396265983582
1988,1438.2396292686462
1989,1438.905632019043
1990,1439.5776345729828
1991,1440.2466371059418
1992,1440.921639919281
1993,1441.5756423473358
1994,1442.2516450881958
1995,1442.9436478614807
1996,1443.6556506156921
1997,1444.3426532745361
1998,1445.0476560592651
1999,1445.7466588020325
2000,1446.4606614112854
2001,1447.147664308548
2002,1447.8366668224335
2003,1448.5306696891785
2004,1449.226672410965
2005,1449.8966748714447
2006,1450.5696775913239
2007,1451.2546803951263
2008,1451.942682981491
2009,1452.6136856079102
2010,1453.28568816185
2011,1453.9946908950806
2012,1454.7076938152313
2013,1455.416696548462
2014,1456.1026992797852
2015,1456.7857019901276
2016,1457.4567046165466
2017,1458.1177072525024
2018,1458.790709733963
2019,1459.4837124347687
2020,1460.1997153759003
2021,1460.9197180271149
2022,1461.6407208442688
2023,1462.3727238178253
2024,1463.1017265319824
2025,1463.7747292518616
2026,1464.4257318973541
2027,1465.068734407425
2028,1465.7287368774414
2029,1466.4187395572662
2030,1467.1257424354553
2031,1467.8177452087402
2032,1468.5327479839325
2033,1469.2347507476807
2034,1469.9417533874512
2035,1470.631756067276
2036,1471.3377587795258
2037,1472.0537617206573
2038,1472.7857644557953
2039,1473.5237674713135
2040,1474.2727704048157
2041,1475.029773235321
2042,1475.784776210785
2043,1476.522779226303
2044,1477.270781993866
2045,1478.0127849578857
2046,1478.7227878570557
2047,1479.434790611267
2048,1480.137793302536
2049,1480.8217959403992
2050,1481.5287988185883
2051,1482.2568016052246
2052,1483.0118045806885
2053,1483.7628076076508
2054,1484.5218105316162
2055,1485.2988135814667
2056,1486.0808165073395
2057,1486.846819639206
2058,1487.6218225955963
2059,1488.4008257389069
2060,1489.1698286533356
2061,1489.915831565857
2062,1490.6718344688416
2063,1491.4278376102448
2064,1492.187840461731
2065,1492.9208433628082
2066,1493.6648461818695
2067,1494.4118492603302
2068,1495.169852256775
2069,1495.9068551063538
2070,1496.6618580818176
2071,1497.418860912323
2072,1498.1798639297485
2073,1498.9088668823242
2074,1499.6498696804047
2075,1500.4048726558685
2076,1501.181875705719
2077,1501.9368786811829
2078,1502.6938815116882
2079,1503.4638845920563
2080,1504.2278876304626
2081,1504.9658904075623
2082,1505.7088935375214
2083,1506.446896314621
2084,1507.1848990917206
2085,1507.9089019298553
2086,1508.6479048728943
2087,1509.3979079723358
2088,1510.1479108333588
2089,1510.8909137248993
2090,1511.646916627884
2091,1512.4079196453094
2092,1513.1539225578308
2093,1513.9129254817963
2094,1514.6759285926819
2095,1515.4379315376282
2096,1516.1759343147278
2097,1516.9169373512268
2098,1517.6519401073456
2099,1518.381942987442
2100,1519.0939457416534
2101,1519.8329486846924
2102,1520.593951702118
2103,1521.3689546585083
2104,1522.1349577903748
2105,1522.9159607887268
2106,1523.7059638500214
2107,1524.47496676445
2108,1525.2419698238373
2109,1526.004972934723
2110,1526.7479758262634
2111,1527.4759786128998
2112,1528.2209815979004
2113,1528.9779844284058
2114,1529.7349874973297
2115,1530.525990486145
2116,1531.334993839264
2117,1532.1299967765808
2118,1532.9400000572205
2119,1533.7540032863617
2120,1534.5520062446594
2121,1535.326009273529
2122,1536.0930123329163
2123,1536.8420152664185
2124,1537.583018064499
2125,1538.3510212898254
2126,1539.1440243721008
2127,1539.9390273094177
2128,1540.7470304965973
2129,1541.575033903122
2130,1542.4060370922089
2131,1543.1950402259827
2132,1543.9970433712006
2133,1544.7870464324951
2134,1545.5670495033264
2135,1546.3240523338318
2136,1547.0980553627014
2137,1547.8870584964752
2138,1548.6690616607666
2139,1549.4320645332336
2140,1550.207067489624
2141,1550.9850707054138
2142,1551.763073682785
2143,1552.5270767211914
2144,1553.299079656601
2145,1554.0770826339722
2146,1554.8540856838226
2147,1555.6110887527466
2148,1556.3610916137695
2149,1557.120094537735
2150,1557.8880977630615
2151,1558.6591007709503
2152,1559.4271037578583
2153,1560.2051067352295
2154,1560.9871098995209
2155,1561.745112657547
2156,1562.484115600586
2157,1563.236118555069
2158,1563.9911215305328
2159,1564.7431244850159
2160,1565.5021274089813
2161,1566.3001306056976
2162,1567.1001336574554
2163,1567.8821368217468
2164,1568.6871399879456
2165,1569.4921431541443
2166,1570.2721462249756
2167,1571.0501492023468
2168,1571.8311522006989
2169,1572.614155292511
2170,1573.3651583194733
2171,1574.1221611499786
2172,1574.8921642303467
2173,1575.683167219162
2174,1576.4621703624725
2175,1577.2691736221313
2176,1578.0871767997742
2177,1578.8861799240112
2178,1579.6821830272675
2179,1580.5041861534119
2180,1581.3251893520355
2181,1582.120192527771
2182,1582.888195514679
2183,1583.6671986579895
2184,1584.4542016983032
2185,1585.2332046031952
2186,1585.9932076931
2187,1586.776210784912
2188,1587.57821393013
2189,1588.3582170009613
2190,1589.1492199897766
2191,1589.942223072052
2192,1590.7052261829376
2193,1591.4742290973663
2194,1592.2332320213318
2195,1592.9702348709106
2196,1593.7132377624512
2197,1594.455240726471
2198,1595.173243522644
2199,1595.8852462768555
2200,1596.612249135971
2201,1597.3492522239685
2202,1598.0822548866272
2203,1598.8112578392029
2204,1599.5402607917786
2205,1600.2692635059357
2206,1600.9852664470673
2207,1601.702269077301
2208,1602.423271894455
2209,1603.1532747745514
2210,1603.8732776641846
2211,1604.6002805233002
2212,1605.337283372879
2213,1606.0742862224579
2214,1606.8062891960144
2215,1607.5542919635773
2216,1608.3092949390411
2217,1609.051297903061
2218,1609.7863008975983
2219,1610.5203037261963
2220,1611.2503066062927
2221,1611.9693093299866
2222,1612.6753120422363
2223,1613.3903148174286
2224,1614.1343178749084
2225,1614.872320652008
2226,1615.6303236484528
2227,1616.3963265419006
2228,1617.1563296318054
2229,1617.8723323345184
2230,1618.55433511734
2231,1619.2033376693726
2232,1619.8583402633667
2233,1620.5323429107666
2234,1621.2293455600739
2235,1621.9083483219147
2236,1622.5723507404327
2237,1623.2653534412384
2238,1623.9893562793732
2239,1624.7273592948914
2240,1625.4443621635437
2241,1626.1613647937775
2242,1626.888367652893
2243,1627.6193706989288
2244,1628.3443734645844
2245,1629.0463762283325
2246,1629.7363789081573
2247,1630.447381734848
2248,1631.1863844394684
2249,1631.9293875694275
2250,1632.6963903903961
2251,1633.4753935337067
2252,1634.2413964271545
2253,1634.9953994750977
2254,1635.754402399063
2255,1636.507405281067
2256,1637.2374081611633
2257,1637.9744110107422
2258,1638.7044138908386
2259,1639.441416978836
2260,1640.1764197349548
2261,1640.9144225120544
2262,1641.664425611496
2263,1642.429428577423
2264,1643.1874315738678
2265,1643.9594345092773
2266,1644.7414376735687
2267,1645.516440629959
2268,1646.2784435749054
2269,1647.0404465198517
2270,1647.7984495162964
2271,1648.554452419281
2272,1649.3024554252625
2273,1650.0674583911896
2274,1650.849461555481
2275,1651.646464586258
2276,1652.4424676895142
2277,1653.2524709701538
2278,1654.0544741153717
2279,1654.8264770507812
2280,1655.5984799861908
2281,1656.3724830150604
2282,1657.1284861564636
2283,1657.8964891433716
2284,1658.6814920902252
2285,1659.486495256424
2286,1660.272498369217
2287,1661.0475013256073
2288,1661.8275043964386
2289,1662.5945074558258
2290,1663.3555104732513
2291,1664.0885133743286
2292,1664.8265161514282
2293,1665.5745191574097
2294,1666.3355221748352
2295,1667.083524942398
2296,1667.8445279598236
2297,1668.6155309677124
2298,1669.3885340690613
2299,1670.15953707695
2300,1670.9405400753021
2301,1671.7225432395935
2302,1672.4825460910797
2303,1673.2275490760803
2304,1673.983551979065
2305,1674.7465550899506
2306,1675.5155580043793
2307,1676.2665610313416
2308,1677.0285639762878
2309,1677.7885670661926
2310,1678.5375699996948
2311,1679.3015727996826
2312,1680.0755758285522
2313,1680.8595790863037
2314,1681.6415820121765
2315,1682.4105851650238
2316,1683.1965880393982
2317,1683.9845912456512
2318,1684.773594379425
2319,1685.5455973148346
2320,1686.3006002902985
2321,1687.0606031417847
2322,1687.8166062831879
2323,1688.5736091136932
2324,1689.3166120052338
2325,1690.0736150741577
2326,1690.8396179676056
2327,1691.6136209964752
2328,1692.3656239509583
2329,1693.1346271038055
2330,1693.904629945755
2331,1694.674633026123
2332,1695.4326360225677
2333,1696.1796388626099
2334,1696.931641817093
2335,1697.683644771576
2336,1698.4296476840973
2337,1699.153650522232
2338,1699.845653295517
2339,1700.5586559772491
2340,1701.2786588668823
2341,1702.0086617469788
2342,1702.7146644592285
2343,1703.4326672554016
2344,1704.1646702289581
2345,1704.901673078537
2346,1705.593675851822
2347,1706.2856783866882
2348,1706.982681274414
2349,1707.6866838932037
2350,1708.406686782837
2351,1709.129689693451
2352,1709.83469247818
2353,1710.529695034027
2354,1711.219697713852
2355,1711.9207005500793
2356,1712.6287033557892
2357,1713.3457062244415
2358,1714.0657088756561
2359,1714.7887117862701
2360,1715.514714717865
2361,1716.2447173595428
2362,1716.9597203731537
2363,1717.6777231693268
2364,1718.4077260494232
2365,1719.1567289829254
2366,1719.9197318553925
2367,1720.678734779358
2368,1721.4477379322052
2369,1722.2157409191132
2370,1722.9807438850403
2371,1723.7507469654083
2372,1724.5217499732971
2373,1725.2947528362274
2374,1726.0527558326721
2375,1726.8017587661743
2376,1727.559761762619
2377,1728.3287646770477
2378,1729.0897676944733
2379,1729.8667707443237
2380,1730.6597738265991
2381,1731.4557769298553
2382,1732.2577800750732
2383,1733.0567831993103
2384,1733.8427863121033
2385,1734.6207892894745
2386,1735.3907923698425
2387,1736.1557953357697
2388,1736.9207983016968
2389,1737.6958014965057
2390,1738.4778044223785
2391,1739.2558076381683
2392,1740.0268106460571
2393,1740.7998135089874
2394,1741.5718166828156
2395,1742.3338196277618
2396,1743.100822687149
2397,1743.8628256320953
2398,1744.6218285560608
2399,1745.383831501007
2400,1746.1538345813751
2401,1746.937837600708
2402,1747.7288405895233
2403,1748.5118436813354
2404,1749.2628467082977
2405,1750.006849527359
2406,1750.7498524188995
2407,1751.4988553524017
2408,1752.2578585147858
2409,1753.0328614711761
2410,1753.8358645439148
2411,1754.649867773056
2412,1755.4608709812164
2413,1756.2568740844727
2414,1757.0428771972656
2415,1757.8258802890778
2416,1758.6078832149506
2417,1759.3858864307404
2418,1760.1568894386292
2419,1760.911892414093
2420,1761.6738953590393
2421,1762.458898305893
2422,1763.2529015541077
2423,1764.0509045124054
2424,1764.8549077510834
2425,1765.6569108963013
2426,1766.4509139060974
2427,1767.2399170398712
2428,1768.0169200897217
2429,1768.7799232006073
2430,1769.5399260520935
2431,1770.3069291114807
2432,1771.0879321098328
2433,1771.8829352855682
2434,1772.6979384422302
2435,1773.5279417037964
2436,1774.3479449748993
2437,1775.161947965622
2438,1775.962951183319
2439,1776.7599544525146
2440,1777.5419573783875
2441,1778.315960407257
2442,1779.0869634151459
2443,1779.864966392517
2444,1780.6549696922302
2445,1781.4539728164673
2446,1782.2529759407043
2447,1783.035978794098
2448,1783.8229820728302
2449,1784.617985010147
2450,1785.4119882583618
2451,1786.1979913711548
2452,1786.9829943180084
2453,1787.761997461319
2454,1788.53800034523
2455,1789.3070034980774
2456,1790.052006483078
2457,1790.7910091876984
2458,1791.5440123081207
2459,1792.3090152740479
2460,1793.0800182819366
2461,1793.8780212402344
2462,1794.688024520874
2463,1795.4940276145935
2464,1796.2950308322906
2465,1797.088033914566
2466,1797.858036994934
2467,1798.5940399169922
2468,1799.3050425052643
2469,1799.987045288086
2470,1800.6520478725433
2471,1801.293050289154
2472,1801.9450528621674
2473,1802.6050555706024
2474,1803.285058259964
2475,1803.9630608558655
2476,1804.6520636081696
2477,1805.3520662784576
2478,1806.0610690116882
2479,1806.7780718803406
2480,1807.5290746688843
2481,1808.3190779685974
2482,1809.086080789566
2483,1809.8440837860107
2484,1810.6020867824554
2485,1811.3440897464752
2486,1812.0370924472809
2487,1812.7150950431824
2488,1813.4060978889465
2489,1814.1161005496979
2490,1814.816103219986
2491,1815.5011060237885
2492,1816.1701085567474
2493,1816.8221111297607
2494,1817.5181138515472
2495,1818.255116701126
2496,1819.0291197299957
2497,1819.8181228637695
2498,1820.608125925064
2499,1821.3671288490295
2500,1822.1321318149567
2501,1822.8921349048615
2502,1823.664137840271
2503,1824.4271409511566
2504,1825.220144033432
2505,1826.030147075653
2506,1826.8491504192352
2507,1827.6591534614563
2508,1828.4601566791534
2509,1829.2581598758698
2510,1830.025162935257
2511,1830.7651658058167
2512,1831.5031685829163
2513,1832.2401714324951
2514,1832.9741742610931
2515,1833.7061772346497
2516,1834.4301800727844
2517,1835.141182899475
2518,1835.8351855278015
2519,1836.513188123703
2520,1837.2091908454895
2521,1837.9341938495636
2522,1838.69619679451
2523,1839.4851999282837
2524,1840.3012030124664
2525,1841.12220621109
2526,1841.9392094612122
2527,1842.74121260643
2528,1843.5172157287598
2529,1844.29021859169
2530,1845.0522215366364
2531,1845.8232245445251
2532,1846.6042277812958
2533,1847.387230873108
2534,1848.1652338504791
2535,1848.9222366809845
2536,1849.690239906311
2537,1850.4812428951263
2538,1851.289246082306
2539,1852.0982491970062
2540,1852.9082524776459
2541,1853.7082555294037
2542,1854.4732584953308
2543,1855.217261314392
2544,1855.9602644443512
2545,1856.711267232895
2546,1857.4822702407837
2547,1858.2832734584808
2548,1859.1042766571045
2549,1859.9112799167633
2550,1860.7262830734253
2551,1861.560286283493
2552,1862.4052896499634
2553,1863.2402927875519
2554,1864.0402960777283
2555,1864.838299036026
2556,1865.6323022842407
2557,1866.4193053245544
2558,1867.1833083629608
2559,1867.959311246872
2560,1868.7463142871857
2561,1869.5403175354004
2562,1870.3403205871582
2563,1871.1223237514496
2564,1871.9223268032074
2565,1872.7173299789429
2566,1873.500333070755
2567,1874.2553360462189
2568,1875.018338918686
2569,1875.7843418121338
2570,1876.5483448505402
2571,1877.2993478775024
2572,1878.055350780487
2573,1878.8303537368774
2574,1879.6053569316864
2575,1880.3603599071503
2576,1881.0993628501892
2577,1881.8403656482697
2578,1882.5823686122894
2579,1883.3343715667725
2580,1884.0983743667603
2581,1884.8483774662018
2582,1885.592380285263
2583,1886.3483831882477
2584,1887.1093862056732
2585,1887.8763892650604
2586,1888.6313922405243
2587,1889.3853950500488
2588,1890.1583981513977
2589,1890.9374012947083
2590,1891.726404428482
2591,1892.510407447815
2592,1893.275410413742
2593,1894.0464134216309
2594,1894.8194165229797
2595,1895.608419418335
2596,1896.391422510147
2597,1897.1574256420135
2598,1897.9434287548065
2599,1898.7404317855835
2600,1899.5294349193573
2601,1900.2924377918243
2602,1901.0614409446716
2603,1901.8464438915253
2604,1902.6394469738007
2605,1903.419450044632
2606,1904.1744530200958
2607,1904.9344561100006
2608,1905.70445895195
2609,1906.4834620952606
2610,1907.242465019226
2611,1907.9894680976868
2612,1908.7434709072113
2613,1909.501473903656
2614,1910.2434768676758
2615,1910.979479789734
2616,1911.731482744217
2617,1912.4994857311249
2618,1913.2744886875153
2619,1914.0264916419983
2620,1914.782494544983
2621,1915.5444974899292
2622,1916.3015005588531
2623,1917.0415034294128
2624,1917.7835063934326
2625,1918.5355093479156
2626,1919.294512271881
2627,1920.0455150604248
2628,1920.8095180988312
2629,1921.5835211277008
2630,1922.363524198532
2631,1923.1245272159576
2632,1923.87553024292
2633,1924.6255331039429
2634,1925.3735361099243
2635,1926.0965387821198
2636,1926.8095417022705
2637,1927.5315444469452
2638,1928.2705473899841
2639,1929.0355503559113
2640,1929.8035533428192
2641,1930.5675563812256
2642,1931.3525593280792
2643,1932.1345624923706
2644,1932.9055655002594
2645,1933.6535685062408
2646,1934.4235713481903
2647,1935.2065744400024
2648,1936.0005776882172
2649,1936.78458070755
2650,1937.5725836753845
2651,1938.3755869865417
2652,1939.1795899868011
2653,1939.9755930900574
2654,1940.7455961704254
2655,1941.5265991687775
2656,1942.3136024475098
2657,1943.1016054153442
2658,1943.8676083087921
2659,1944.624611377716
2660,1945.4016144275665
2661,1946.2016174793243
2662,1947.0206208229065
2663,1947.8196239471436
2664,1948.6206269264221
2665,1949.4246301651
2666,1950.2306332588196
2667,1951.012636423111
2668,1951.780639410019
2669,1952.5526423454285
2670,1953.3396453857422
2671,1954.1396486759186
2672,1954.927651643753
2673,1955.7166547775269
2674,1956.5166578292847
2675,1957.3176610469818
2676,1958.0966641902924
2677,1958.8576669692993
2678,1959.620670080185
2679,1960.3766729831696
2680,1961.11967587471
2681,1961.8316786289215
2682,1962.5596816539764
2683,1963.326684474945
2684,1964.1156876087189
2685,1964.9266908168793
2686,1965.7306940555573
2687,1966.5266971588135
2688,1967.3317003250122
2689,1968.13370347023
2690,1968.9277064800262
2691,1969.6997094154358
2692,1970.4857125282288
2693,1971.2807157039642
2694,1972.0797188282013
2695,1972.8727219104767
2696,1973.6497249603271
2697,1974.4467279911041
2698,1975.2497313022614
2699,1976.047734260559
2700,1976.838737487793
2701,1977.6127405166626
2702,1978.3867435455322
2703,1979.1617465019226
2704,1979.9487495422363
2705,1980.7257525920868
2706,1981.4997556209564
2707,1982.2987587451935
2708,1983.1197619438171
2709,1983.9277651309967
2710,1984.7137682437897
2711,1985.5147714614868
2712,1986.3177745342255
2713,1987.1217777729034
2714,1987.9017808437347
2715,1988.6687836647034
2716,1989.4537868499756
2717,1990.251790046692
2718,1991.0427930355072
2719,1991.8097960948944
2720,1992.5567989349365
2721,1993.2748017311096
2722,1993.9838044643402
2723,1994.7218074798584
2724,1995.4838104248047
2725,1996.2308132648468
2726,1996.999816417694
2727,1997.7748193740845
2728,1998.5588223934174
2729,1999.321825504303
2730,2000.0768284797668
2731,2000.8538315296173
2732,2001.6508345603943
2733,2002.4468376636505
2734,2003.2208406925201
2735,2004.0168437957764
2736,2004.8298470973969
2737,2005.6388502120972
2738,2006.427853345871
2739,2007.2328565120697
2740,2008.0448596477509
2741,2008.838862657547
2742,2009.6208658218384
2743,2010.423868894577
2744,2011.2508721351624
2745,2012.0638754367828
2746,2012.875878572464
2747,2013.724881887436
2748,2014.5788850784302
2749,2015.3928883075714
2750,2016.2098915576935
2751,2017.0258948802948
2752,2017.8368978500366
2753,2018.6179010868073
2754,2019.4109041690826
2755,2020.2209072113037
2756,2021.0459105968475
2757,2021.8489136695862
2758,2022.6759169101715
2759,2023.515920162201
2760,2024.3429234027863
2761,2025.1409265995026
2762,2025.9599297046661
2763,2026.7929329872131
2764,2027.6089360713959
2765,2028.396939277649
2766,2029.2079424858093
2767,2030.028945684433
2768,2030.82794880867
2769,2031.6109519004822
2770,2032.4209549427032
2771,2033.2429583072662
2772,2034.0449614524841
2773,2034.8339643478394
2774,2035.6359674930573
2775,2036.4439706802368
2776,2037.2229738235474
2777,2037.9869768619537
2778,2038.7659797668457
2779,2039.5519828796387
2780,2040.3389859199524
2781,2041.1059889793396
2782,2041.8959920406342
2783,2042.6919951438904
2784,2043.4869983196259
2785,2044.2630014419556
2786,2045.0520045757294
2787,2045.8510076999664
2788,2046.6490106582642
2789,2047.4270136356354
2790,2048.22301697731
2791,2049.0220201015472
2792,2049.8270230293274
2793,2050.603026151657
2794,2051.3700292110443
2795,2052.136032104492
2796,2052.9050352573395
2797,2053.6580381393433
2798,2054.398041009903
2799,2055.1700439453125
2800,2055.970047235489
2801,2056.754050254822
2802,2057.5440533161163
2803,2058.349056482315
2804,2059.1520595550537
2805,2059.9120626449585
2806,2060.66006565094
2807,2061.4150683879852
2808,2062.1760714054108
2809,2062.928074359894
2810,2063.680077314377
2811,2064.46808052063
2812,2065.2730836868286
2813,2066.0650866031647
2814,2066.848089694977
2815,2067.6500928401947
2816,2068.451096057892
2817,2069.2190990448
2818,2069.9751019477844
2819,2070.7451050281525
2820,2071.5151081085205
2821,2072.266110897064
2822,2072.989113807678
2823,2073.7211167812347
2824,2074.460119485855
2825,2075.2231225967407
2826,2075.988125562668
2827,2076.740128517151
2828,2077.502131462097
2829,2078.273134469986
2830,2079.0481374263763
2831,2079.795140504837
2832,2080.5361433029175
2833,2081.282146215439
2834,2082.0291492938995
2835,2082.784152030945
2836,2083.519155025482
2837,2084.2471578121185
2838,2084.99316072464
2839,2085.7401638031006
2840,2086.486166715622
2841,2087.2091693878174
2842,2087.9111721515656
2843,2088.5951747894287
2844,2089.280177593231
2845,2090.0001804828644
2846,2090.740183353424
2847,2091.5141863822937
2848,2092.3061892986298
2849,2093.0921924114227
2850,2093.8661954402924
2851,2094.603198289871
2852,2095.303201198578
2853,2095.94820356369
2854,2096.593206167221
2855,2097.2762088775635
2856,2098.003211736679
2857,2098.7592146396637
2858,2099.5302176475525
2859,2100.2982206344604
2860,2101.091223716736
2861,2101.8822269439697
2862,2102.6662299633026
2863,2103.427232980728
2864,2104.1542358398438
2865,2104.8922386169434
2866,2105.6412415504456
2867,2106.4142446517944
2868,2107.189247608185
2869,2107.957250595093
2870,2108.7692539691925
2871,2109.5942571163177
2872,2110.434260368347
2873,2111.2452635765076
2874,2112.066266775131
2875,2112.8772699832916
2876,2113.6662731170654
2877,2114.4242758750916
2878,2115.204278945923
2879,2115.992282152176
2880,2116.793285369873
2881,2117.5892884731293
2882,2118.408291578293
2883,2119.2422947883606
2884,2120.0882980823517
2885,2120.907301425934
2886,2121.724304676056
2887,2122.533307790756
2888,2123.333310842514
2889,2124.104313850403
2890,2124.8803169727325
2891,2125.6633200645447
2892,2126.45432305336
2893,2127.221326112747
2894,2127.9853291511536
2895,2128.7673320770264
2896,2129.561335325241
2897,2130.342338323593
2898,2131.127341270447
2899,2131.910344362259
2900,2132.6523473262787
2901,2133.3443500995636
2902,2134.0213527679443
2903,2134.707355260849
2904,2135.3933579921722
2905,2136.120360851288
2906,2136.8763637542725
2907,2137.650366783142
2908,2138.4133698940277
2909,2139.1793727874756
2910,2139.9623758792877
2911,2140.758378982544
2912,2141.528382062912
2913,2142.2873849868774
2914,2143.0523879528046
2915,2143.8223910331726
2916,2144.581393957138
2917,2145.320396900177
2918,2146.0843999385834
2919,2146.8624029159546
2920,2147.65740609169
2921,2148.4354090690613
2922,2149.2444121837616
2923,2150.0694155693054
2924,2150.8954186439514
2925,2151.6654217243195
2926,2152.390424489975
2927,2153.1304275989532
2928,2153.8714303970337
2929,2154.612433195114
2930,2155.354436159134
2931,2156.0604388713837
2932,2156.7554416656494
2933,2157.4444444179535
2934,2158.1394472122192
2935,2158.8474497795105
2936,2159.553452730179
2937,2160.245455265045
2938,2160.9344580173492
2939,2161.6184606552124
2940,2162.2994632720947
2941,2162.966465950012
2942,2163.627468585968
2943,2164.2974712848663
2944,2164.9844739437103
2945,2165.6884765625
2946,2166.3924794197083
2947,2167.101482152939
2948,2167.8154850006104
2949,2168.52348780632
2950,2169.226490497589
2951,2169.9254932403564
2952,2170.635495901108
2953,2171.370498895645
2954,2172.1185019016266
2955,2172.859504699707
2956,2173.597507715225
2957,2174.3445105552673
2958,2175.0965135097504
2959,2175.8445162773132
2960,2176.583519220352
2961,2177.327522277832
2962,2178.079525232315
2963,2178.8255281448364
2964,2179.57853102684
2965,2180.3425340652466
2966,2181.115536928177
2967,2181.8805401325226
2968,2182.6485431194305
2969,2183.4175460338593
2970,2184.172549009323
2971,2184.907551765442
2972,2185.635554790497
2973,2186.3735575675964
2974,2187.1175606250763
2975,2187.8615634441376
2976,2188.6145663261414
2977,2189.3685693740845
2978,2190.1165721416473
2979,2190.850575208664
2980,2191.5865778923035
2981,2192.331580877304
2982,2193.0815839767456
2983,2193.819586753845
2984,2194.5495896339417
2985,2195.2705924510956
2986,2195.997595310211
2987,2196.7285981178284
2988,2197.4646010398865
2989,2198.212604045868
2990,2198.977607011795
2991,2199.7346098423004
2992,2200.493612766266
2993,2201.25261592865
2994,2202.0106189250946
2995,2202.7586216926575
2996,2203.493624687195
2997,2204.229627609253
2998,2204.973630428314
2999,2205.723633289337
3000,2206.4736363887787
3001,2207.227639198303
3002,2207.983642101288
3003,2208.73464512825
3004,2209.4856481552124
3005,2210.241651058197
3006,2210.9996540546417
3007,2211.756656885147
3008,2212.4946599006653
3009,2213.229662656784
3010,2213.971665620804
3011,2214.718668460846
3012,2215.4686715602875
3013,2216.225674390793
3014,2216.993677377701
3015,2217.765680551529
3016,2218.530683517456
3017,2219.295686483383
3018,2220.0556893348694
3019,2220.80269241333
3020,2221.5406951904297
3021,2222.255697965622
3022,2222.963700771332
3023,2223.670703649521
3024,2224.3587062358856
3025,2225.028708934784
3026,2225.7167115211487
3027,2226.43071436882
3028,2227.105716943741
3029,2227.7587196826935
3030,2228.417722225189
3031,2229.076724767685
3032,2229.7387273311615
3033,2230.3937299251556
3034,2231.026732444763
3035,2231.672734975815
3036,2232.3447375297546
3037,2233.0137400627136
3038,2233.669742822647
3039,2234.3117451667786
3040,2235.0057480335236
3041,2235.7197506427765
3042,2236.4407534599304
3043,2237.1667563915253
3044,2237.9127593040466
3045,2238.661762237549
3046,2239.3917651176453
3047,2240.1247680187225
3048,2240.8507709503174
3049,2241.5777735710144
3050,2242.3007764816284
3051,2243.0337793827057
3052,2243.780782222748
3053,2244.5377852916718
3054,2245.3037881851196
3055,2246.056791305542
3056,2246.809794187546
3057,2247.5787971019745
3058,2248.360800266266
3059,2249.156803369522
3060,2249.945806503296
3061,2250.7308094501495
3062,2251.5118124485016
3063,2252.290815591812
3064,2253.0578186511993
3065,2253.8098216056824
3066,2254.5698244571686
3067,2255.3398275375366
3068,2256.1268305778503
3069,2256.923833847046
3070,2257.7098367214203
3071,2258.516839981079
3072,2259.320843219757
3073,2260.1248462200165
3074,2260.9238493442535
3075,2261.702852487564
3076,2262.489855527878
3077,2263.271858692169
3078,2264.0448615550995
3079,2264.813864707947
3080,2265.5838675498962
3081,2266.3398706912994
3082,2267.063873529434
3083,2267.7748761177063
3084,2268.4998791217804
3085,2269.229882001877
3086,2269.9538848400116
3087,2270.6938877105713
3088,2271.42889046669
3089,2272.1718933582306
3090,2272.9128963947296
3091,2273.6468992233276
3092,2274.3859021663666
3093,2275.115905046463
3094,2275.8309078216553
3095,2276.55491065979
3096,2277.2819135189056
3097,2278.024916410446
3098,2278.7849192619324
3099,2279.5579223632812
3100,2280.323925256729
3101,2281.114928483963
3102,2281.9069316387177
3103,2282.682934522629
3104,2283.431937456131
3105,2284.183940410614
3106,2284.9299433231354
3107,2285.669946193695
3108,2286.3969490528107
3109,2287.1379520893097
3110,2287.8909549713135
3111,2288.6449580192566
3112,2289.3779606819153
3113,2290.1079635620117
3114,2290.8339664936066
3115,2291.566969394684
3116,2292.3049721717834
3117,2293.0459752082825
3118,2293.7829780578613
3119,2294.5139808654785
3120,2295.2339837551117
3121,2295.9419865608215
3122,2296.634989261627
3123,2297.3239917755127
3124,2298.008994579315
3125,2298.6929972171783
3126,2299.378000020981
3127,2300.075002670288
3128,2300.7730054855347
3129,2301.4770081043243
3130,2302.1640107631683
3131,2302.859013557434
3132,2303.5570163726807
3133,2304.2580189704895
3134,2304.9480216503143
3135,2305.6370244026184
3136,2306.332027196884
3137,2307.0230298042297
3138,2307.7020325660706
3139,2308.365035057068
3140,2309.035037755966
3141,2309.710040330887
3142,2310.3740429878235
3143,2311.0120453834534
3144,2311.632047891617
3145,2312.255050420761
3146,2312.877052783966
3147,2313.4940552711487
3148,2314.1170575618744
3149,2314.750060081482
3150,2315.392062664032
3151,2316.027065038681
3152,2316.6600675582886
3153,2317.296070098877
3154,2317.9240725040436
3155,2318.534074783325
3156,2319.1280772686005
3157,2319.720079421997
3158,2320.3090817928314
3159,2320.8960840702057
3160,2321.470086336136
3161,2322.041088581085
3162,2322.616090774536
3163,2323.182093143463
3164,2323.741095304489
3165,2324.308097600937
3166,2324.883099794388
3167,2325.4661021232605
3168,2326.042104244232
3169,2326.6161065101624
3170,2327.202108860016
3171,2327.800111055374
3172,2328.4181134700775
3173,2329.0341160297394
3174,2329.6321182250977
3175,2330.2171206474304
3176,2330.8081228733063
3177,2331.4051253795624
3178,2332.0061275959015
3179,2332.613130092621
3180,2333.21613240242
3181,2333.8081347942352
3182,2334.4111371040344
3183,2335.0191395282745
3184,2335.6311419010162
3185,2336.240144252777
3186,2336.844146490097
3187,2337.458148956299
3188,2338.0781514644623
3189,2338.6971538066864
3190,2339.307156085968
3191,2339.907158613205
3192,2340.5031609535217
3193,2341.0951631069183
3194,2341.6771655082703
3195,2342.2651677131653
3196,2342.858170032501
3197,2343.4551725387573
3198,2344.0531747341156
3199,2344.668177127838
3200,2345.295179605484
3201,2345.927182197571
3202,2346.572184562683
3203,2347.231187105179
3204,2347.904189825058
3205,2348.572192430496
3206,2349.220195055008
3207,2349.8671975135803
3208,2350.5242002010345
3209,2351.184202671051
3210,2351.860205411911
3211,2352.5062079429626
3212,2353.13721036911
3213,2353.759212732315
3214,2354.407215356827
3215,2355.0802178382874
3216,2355.7692205905914
3217,2356.4422233104706
3218,2357.109225988388
3219,2357.7842285633087
3220,2358.4712312221527
3221,2359.167233943939
3222,2359.8632366657257
3223,2360.531239271164
3224,2361.1922419071198
3225,2361.8672444820404
3226,2362.547247171402
3227,2363.2112498283386
3228,2363.85325217247
3229,2364.4812548160553
3230,2365.1682574748993
3231,2365.9142603874207
3232,2366.6622631549835
3233,2367.412266254425
3234,2368.1392691135406
3235,2368.831271648407
3236,2369.486274242401
3237,2370.115276813507
3238,2370.742279291153
3239,2371.3852818012238
3240,2372.0832843780518
3241,2372.85328745842
3242,2373.651290655136
3243,2374.4262936115265
3244,2375.2402968406677
3245,2376.069300174713
3246,2376.895303249359
3247,2377.6913063526154
3248,2378.4783096313477
3249,2379.232312440872
3250,2379.9623153209686
3251,2380.6703181266785
3252,2381.353320837021
3253,2382.035323381424
3254,2382.737326145172
3255,2383.466329097748
3256,2384.2053320407867
3257,2384.933334827423
3258,2385.686337709427
3259,2386.4493408203125
3260,2387.224343776703
3261,2388.0083467960358
3262,2388.7843499183655
3263,2389.5463528633118
3264,2390.3073558807373
3265,2391.0643587112427
3266,2391.8323616981506
3267,2392.614364862442
3268,2393.4043679237366
3269,2394.2083711624146
3270,2395.004374265671
3271,2395.795377254486
3272,2396.579380273819
3273,2397.3593833446503
3274,2398.13338637352
3275,2398.906389474869
3276,2399.6513924598694
3277,2400.4013953208923
3278,2401.1513981819153
3279,2401.9104013442993
3280,2402.679404258728
3281,2403.4514071941376
3282,2404.1984102725983
3283,2404.9434130191803
3284,2405.6914160251617
3285,2406.455419063568
3286,2407.2224221229553
3287,2407.9644248485565
3288,2408.7204279899597
3289,2409.479430913925
3290,2410.2434339523315
3291,2410.9954369068146
3292,2411.7294397354126
3293,2412.475442647934
3294,2413.227445602417
3295,2413.9794485569
3296,2414.713451385498
3297,2415.4564542770386
3298,2416.1984572410583
3299,2416.920459985733
3300,2417.626462697983
3301,2418.3404655456543
3302,2419.066468477249
3303,2419.7964713573456
3304,2420.5174741744995
3305,2421.2124767303467
3306,2421.9334795475006
3307,2422.655482530594
3308,2423.3824853897095
3309,2424.107488155365
3310,2424.827491044998
3311,2425.5534937381744
3312,2426.283496618271
3313,2426.999499320984
3314,2427.6795020103455
3315,2428.3765048980713
3316,2429.0915076732635
3317,2429.8265104293823
3318,2430.5825135707855
3319,2431.3275163173676
3320,2432.0855193138123
3321,2432.845522403717
3322,2433.6035254001617
3323,2434.3365280628204
3324,2435.0725309848785
3325,2435.8135340213776
3326,2436.552536725998
3327,2437.2555396556854
3328,2437.920542240143
3329,2438.588544845581
3330,2439.307547569275
3331,2440.045550584793
3332,2440.8045535087585
3333,2441.530556201935
3334,2442.2725591659546
3335,2443.0095620155334
3336,2443.744565010071
3337,2444.4525678157806
3338,2445.1605706214905
3339,2445.8605732917786
3340,2446.5665760040283
3341,2447.2695786952972
3342,2447.9425814151764
3343,2448.653584241867
3344,2449.3665869235992
3345,2450.0885899066925
3346,2450.814592599869
3347,2451.5105953216553
3348,2452.179598093033
3349,2452.8756008148193
3350,2453.5756034851074
3351,2454.2786061763763
3352,2454.974608898163
3353,2455.647611618042
3354,2456.350614309311
3355,2457.0486171245575
3356,2457.755619764328
3357,2458.4406225681305
3358,2459.1146252155304
3359,2459.790627717972
3360,2460.478630542755
3361,2461.160633087158
3362,2461.819635629654
3363,2462.459638118744
3364,2463.117640733719
3365,2463.7866435050964
3366,2464.475646018982
3367,2465.156648874283
3368,2465.825651407242
3369,2466.509654045105
3370,2467.1896567344666
3371,2467.8896594047546
3372,2468.558662176132
3373,2469.230664730072
3374,2469.901667356491
3375,2470.557669878006
3376,2471.1926724910736
3377,2471.841675043106
3378,2472.49267745018
3379,2473.145679950714
3380,2473.790682554245
3381,2474.453685283661
3382,2475.1186878681183
3383,2475.777690410614
3384,2476.4086928367615
3385,2477.0326952934265
3386,2477.658697605133
3387,2478.29270029068
3388,2478.9317026138306
3389,2479.5577051639557
3390,2480.183707714081
3391,2480.81670999527
3392,2481.46071267128
3393,2482.105715036392
3394,2482.745717525482
3395,2483.3787200450897
3396,2484.014722585678
3397,2484.6657252311707
3398,2485.3007276058197
3399,2485.9327301979065
3400,2486.574732542038
3401,2487.1797349452972
3402,2487.772737264633
3403,2488.3457396030426
3404,2488.909741640091
3405,2489.472743988037
3406,2490.045746088028
3407,2490.621748447418
3408,2491.1897506713867
3409,2491.768753051758
3410,2492.3547551631927
3411,2492.9427576065063
3412,2493.52875995636
3413,2494.1127622127533
3414,2494.703764438629
3415,2495.296766757965
3416,2495.875769138336
3417,2496.4387712478638
3418,2497.0017733573914
3419,2497.5727756023407
3420,2498.162777900696
3421,2498.7747802734375
3422,2499.4037828445435
3423,2500.039785385132
3424,2500.674787759781
3425,2501.2927901744843
3426,2501.91979265213
3427,2502.549795150757
3428,2503.1807975769043
3429,2503.815800189972
3430,2504.4628026485443
3431,2505.1148052215576
3432,2505.781807899475
3433,2506.4398102760315
3434,2507.098813056946
3435,2507.7588155269623
3436,2508.4248180389404
3437,2509.093820810318
3438,2509.741823196411
3439,2510.4138259887695
3440,2511.096828699112
3441,2511.7868313789368
3442,2512.465833902359
3443,2513.1348366737366
3444,2513.812839269638
3445,2514.502841949463
3446,2515.1968445777893
3447,2515.8848474025726
3448,2516.609850168228
3449,2517.3508529663086
3450,2518.0948560237885
3451,2518.837858915329
3452,2519.5618617534637
3453,2520.2578644752502
3454,2520.96586728096
3455,2521.6928701400757
3456,2522.422873020172
3457,2523.157875776291
3458,2523.919878721237
3459,2524.7078819274902
3460,2525.504884958267
3461,2526.2848880290985
3462,2527.050891160965
3463,2527.818894147873
3464,2528.5728969573975
3465,2529.2948999404907
3466,2529.986902475357
3467,2530.636905193329
3468,2531.3219077587128
3469,2532.072910785675
3470,2532.866913795471
3471,2533.6839170455933
3472,2534.491920232773
3473,2535.2799232006073
3474,2536.0519263744354
3475,2536.8099291324615
3476,2537.531932115555
3477,2538.2119348049164
3478,2538.8859374523163
3479,2539.5709400177
3480,2540.297942876816
3481,2541.0429458618164
3482,2541.830948829651
3483,2542.6359519958496
3484,2543.909956932068
3485,2544.8639607429504
3486,2545.6009635925293
3487,2546.295966386795
3488,2546.995969057083
3489,2547.6689717769623
3490,2548.3389744758606
3491,2549.0339770317078
3492,2549.7419798374176
3493,2550.4779827594757
3494,2551.202985525131
3495,2551.9649884700775
3496,2552.738991498947
3497,2553.519994735718
3498,2554.2789976596832
3499,2554.9910004138947
3500,2555.656002998352
3501,2556.3380057811737
3502,2557.050008535385
3503,2557.7910113334656
3504,2558.54701423645
3505,2559.2770171165466
3506,2560.036020040512
3507,2560.8150231838226
3508,2561.611026287079
3509,2562.410029411316
3510,2563.194032430649
3511,2563.9680354595184
3512,2564.7460386753082
3513,2565.512041568756
3514,2566.280044555664
3515,2567.019047498703
3516,2567.7570502758026
3517,2568.505053281784
3518,2569.2670562267303
3519,2570.010059118271
3520,2570.7910623550415
3521,2571.5880653858185
3522,2572.4030685424805
3523,2573.1990716457367
3524,2573.9960746765137
3525,2574.79407787323
3526,2575.590080976486
3527,2576.3540840148926
3528,2577.1270871162415
3529,2577.897089958191
3530,2578.6760931015015
3531,2579.4560961723328
3532,2580.238099336624
3533,2581.0311024188995
3534,2581.8181054592133
3535,2582.589108467102
3536,2583.375111579895
3537,2584.1631145477295
3538,2584.9301176071167
3539,2585.6681203842163
3540,2586.418123483658
3541,2587.1741263866425
3542,2587.9541294574738
3543,2588.7201323509216
3544,2589.487135410309
3545,2590.2641384601593
3546,2591.053141593933
3547,2591.8301446437836
3548,2592.615147590637
3549,2593.4021508693695
3550,2594.1781537532806
3551,2594.9201567173004
3552,2595.663159608841
3553,2596.3911623954773
3554,2597.097165107727
3555,2597.804167985916
3556,2598.510170698166
3557,2599.2271735668182
3558,2599.9431762695312
3559,2600.669179201126
3560,2601.404181957245
3561,2602.139184951782
3562,2602.8561878204346
3563,2603.5731904506683
3564,2604.28719329834
3565,2604.994196176529
3566,2605.6851987838745
3567,2606.3882014751434
3568,2607.1082043647766
3569,2607.8372073173523
3570,2608.574210166931
3571,2609.296212911606
3572,2609.980215549469
3573,2610.6522183418274
3574,2611.369220972061
3575,2612.1032240390778
3576,2612.8202266693115
3577,2613.531229496002
3578,2614.2192323207855
3579,2614.8982348442078
3580,2615.5622375011444
3581,2616.208240032196
3582,2616.8312425613403
3583,2617.4602448940277
3584,2618.1062474250793
3585,2618.7642500400543
3586,2619.439252614975
3587,2620.1092553138733
3588,2620.781257867813
3589,2621.458260536194
3590,2622.128263235092
3591,2622.7942657470703
3592,2623.469268321991
3593,2624.1722712516785
3594,2624.88227391243
3595,2625.600276708603
3596,2626.3312797546387
3597,2627.0642824172974
3598,2627.801285505295
3599,2628.540288209915
3600,2629.271291255951
3601,2629.985293865204
3602,2630.7012968063354
3603,2631.442299604416
3604,2632.228302717209
3605,2633.0153057575226
3606,2633.8303089141846
3607,2634.6533122062683
3608,2635.479315519333
3609,2636.2823185920715
3610,2637.0813217163086
3611,2637.8813247680664
3612,2638.6793279647827
3613,2639.4693310260773
3614,2640.274334192276
3615,2641.091337442398
3616,2641.9183406829834
3617,2642.734343767166
3618,2643.5643470287323
3619,2644.401350259781
3620,2645.228353500366
3621,2646.038356781006
3622,2646.837359905243
3623,2647.618362903595
3624,2648.3813660144806
3625,2649.145369052887
3626,2649.9273719787598
3627,2650.720375061035
3628,2651.530378341675
3629,2652.358381509781
3630,2653.1973848342896
3631,2654.0283880233765
3632,2654.85139131546
3633,2655.6523942947388
3634,2656.4453976154327
3635,2657.236400604248
3636,2658.030403614044
3637,2658.8304069042206
3638,2659.6174099445343
3639,2660.4104130268097
3640,2661.216416120529
3641,2662.0424194335938
3642,2662.8654227256775
3643,2663.670425891876
3644,2664.473428964615
3645,2665.2794320583344
3646,2666.0804352760315
3647,2666.868438243866
3648,2667.6594414711
3649,2668.456444501877
3650,2669.252447605133
3651,2670.035450696945
3652,2670.8164536952972
3653,2671.605456829071
3654,2672.4144599437714
3655,2673.232463121414
3656,2674.042466402054
3657,2674.8644695281982
3658,2675.6864728927612
3659,2676.5004761219025
3660,2677.3184792995453
3661,2678.132482290268
3662,2678.935485601425
3663,2679.724488735199
3664,2680.5144917964935
3665,2681.299494743347
3666,2682.057497739792
3667,2682.7945005893707
3668,2683.495503425598
3669,2684.1895060539246
3670,2684.9135088920593
3671,2685.6525118350983
3672,2686.4175148010254
3673,2687.1795177459717
3674,2687.9185206890106
3675,2688.635523557663
3676,2689.307526111603
3677,2689.944528579712
3678,2690.5905311107635
3679,2691.2745337486267
3680,2692.0085368156433
3681,2692.7665395736694
3682,2693.5835428237915
3683,2694.4345462322235
3684,2695.2815494537354
3685,2696.1475529670715
3686,2696.9965562820435
3687,2697.8225593566895
3688,2698.617562532425
3689,2699.4115657806396
3690,2700.202568769455
3691,2700.9915719032288
3692,2701.787575006485
3693,2702.6215782165527
3694,2703.4925816059113
3695,2704.3615851402283
3696,2705.2495884895325
3697,2706.1395919322968
3698,2707.0095953941345
3699,2707.8685986995697
3700,2708.7196021080017
3701,2709.549605369568
3702,2710.36660861969
3703,2711.1376116275787
3704,2711.91561460495
3705,2712.6816177368164
3706,2713.4656207561493
3707,2714.2426238059998
3708,2715.01762676239
3709,2715.8266298770905
3710,2716.6426331996918
3711,2717.4596362113953
3712,2718.2586393356323
3713,2719.066642522812
3714,2719.8906457424164
3715,2720.7256491184235
3716,2721.580652475357
3717,2722.4056556224823
3718,2723.223658800125
3719,2724.0476620197296
3720,2724.8656651973724
3721,2725.691668510437
3722,2726.5056717395782
3723,2727.3376750946045
3724,2728.174678325653
3725,2729.0046815872192
3726,2729.8086845874786
3727,2730.6186878681183
3728,2731.43169093132
3729,2732.235694169998
3730,2733.0306973457336
3731,2733.8167004585266
3732,2734.6157035827637
3733,2735.4177067279816
3734,2736.2147097587585
3735,2737.0107128620148
3736,2737.80171585083
3737,2738.5887191295624
3738,2739.3537220954895
3739,2740.1497251987457
3740,2740.9507281780243
3741,2741.7437312602997
3742,2742.511734485626
3743,2743.2837374210358
3744,2744.0157401561737
3745,2744.698742866516
3746,2745.376745700836
3747,2746.0577483177185
3748,2746.7467510700226
3749,2747.4307537078857
3750,2748.153756380081
3751,2748.9047594070435
3752,2749.680762529373
3753,2750.4687654972076
3754,2751.264768600464
3755,2752.0667717456818
3756,2752.854774951935
3757,2753.6317780017853
3758,2754.369780778885
3759,2755.120783805847
3760,2755.87278676033
3761,2756.639789581299
3762,2757.4207928180695
3763,2758.208795785904
3764,2758.976798772812
3765,2759.7588019371033
3766,2760.530804872513
3767,2761.311807870865
3768,2762.0698108673096
3769,2762.8238139152527
3770,2763.584816932678
3771,2764.3618199825287
3772,2765.13782286644
3773,2765.886825799942
3774,2766.6488287448883
3775,2767.403831720352
3776,2768.1408348083496
3777,2768.8448374271393
3778,2769.5298402309418
3779,2770.221842765808
3780,2770.918845653534
3781,2771.6048481464386
3782,2772.294851064682
3783,2772.976853609085
3784,2773.6578562259674
3785,2774.319858789444
3786,2774.9808614254
3787,2775.6418640613556
3788,2776.3028666973114
3789,2776.948869228363
3790,2777.588871717453
3791,2778.225874185562
3792,2778.860876560211
3793,2779.476879119873
3794,2780.085881471634
3795,2780.693883895874
3796,2781.2988862991333
3797,2781.9018886089325
3798,2782.501890897751
3799,2783.0978932380676
3800,2783.6968955993652
3801,2784.2988979816437
3802,2784.895900249481
3803,2785.4879026412964
3804,2786.0909049510956
3805,2786.697907447815
3806,2787.2899096012115
3807,2787.877912044525
3808,2788.4649143218994
3809,2789.048916578293
3810,2789.6329188346863
3811,2790.2069211006165
3812,2790.7769231796265
3813,2791.347925424576
3814,2791.9179277420044
3815,2792.4949300289154
3816,2793.073932170868
3817,2793.6489346027374
3818,2794.2179367542267
3819,2794.789938926697
3820,2795.3589413166046
3821,2795.9209434986115
3822,2796.480945587158
3823,2797.0289478302
3824,2797.570949792862
3825,2798.1149520874023
3826,2798.663954257965
3827,2799.2149562835693
3828,2799.761958360672
3829,2800.3009605407715
3830,2800.83496260643
3831,2801.3639647960663
3832,2801.892966747284
3833,2802.424968957901
3834,2802.9579708576202
3835,2803.4899730682373
3836,2804.021975040436
3837,2804.558977127075
3838,2805.096979379654
3839,2805.639981508255
3840,2806.1849834918976
3841,2806.7329857349396
3842,2807.2819879055023
3843,2807.8369901180267
3844,2808.394992351532
3845,2808.950994491577
3846,2809.5049965381622
3847,2810.0709989070892
3848,2810.6390011310577
3849,2811.219003200531
3850,2811.796005487442
3851,2812.360007762909
3852,2812.9140100479126
3853,2813.4810121059418
3854,2814.0590143203735
3855,2814.658016681671
3856,2815.2550191879272
3857,2815.844021320343
3858,2816.4220237731934
3859,2816.9930260181427
3860,2817.562028169632
3861,2818.1300303936005
3862,2818.7000324726105
3863,2819.2690348625183
3864,2819.8570370674133
3865,2820.4510395526886
3866,2821.0470418930054
3867,2821.652044057846
3868,2822.260046482086
3869,2822.873049020767
3870,2823.478051185608
3871,2824.083053588867
3872,2824.684056043625
3873,2825.2750582695007
3874,2825.7170600891113
3875,2826.4350628852844
3876,2827.0060651302338
3877,2827.444066762924
3878,2828.144069671631
3879,2828.719071865082
3880,2829.304074048996
3881,2829.9030764102936
3882,2830.507078886032
3883,2831.127081155777
3884,2831.7580835819244
3885,2832.3870861530304
3886,2832.999088525772
3887,2833.450090408325
3888,2834.2720935344696
3889,2834.888095855713
3890,2835.496098279953
3891,2836.1001007556915
3892,2836.716103076935
3893,2837.3491055965424
3894,2837.98210811615
3895,2838.627110481262
3896,2839.2821130752563
3897,2839.93811583519
3898,2840.596118211746
3899,2841.258120775223
3900,2841.9271235466003
3901,2842.5951261520386
3902,2843.2541286945343
3903,2843.910131216049
3904,2844.5541338920593
3905,2845.1881363391876
3906,2845.819138765335
3907,2846.4521412849426
3908,2847.0761437416077
3909,2847.7031462192535
3910,2848.3331484794617
3911,2848.9521510601044
3912,2849.57715344429
3913,2850.1961557865143
3914,2850.810158252716
3915,2851.424160718918
3916,2852.0471630096436
3917,2852.680165529251
3918,2853.3051681518555
3919,2853.928170442581
3920,2854.544173002243
3921,2855.1581752300262
3922,2855.758177757263
3923,2856.782181739807
3924,2857.56618475914
3925,2858.1781871318817
3926,2858.791189432144
3927,2859.3991918563843
3928,2860.0171942710876
3929,2860.6411967277527
3930,2861.260199069977
3931,2861.8902015686035
3932,2862.543204307556
3933,2863.215206861496
3934,2863.8962094783783
3935,2864.587212085724
3936,2865.2722148895264
3937,2865.9612176418304
3938,2866.6402201652527
3939,2867.313222885132
3940,2867.9692254066467
3941,2868.6092278957367
3942,2869.253230571747
3943,2869.9022328853607
3944,2870.54123544693
3945,2871.186238050461
3946,2871.8302404880524
3947,2872.473242998123
3948,2873.1122455596924
3949,2873.7342479228973
3950,2874.366250514984
3951,2875.007252931595
3952,2875.6682555675507
3953,2876.328258037567
3954,2876.9832606315613
3955,2877.646263360977
3956,2878.320266008377
3957,2878.991268634796
3958,2879.665271282196
3959,2880.3442738056183
3960,2881.003276348114
3961,2881.6712789535522
3962,2882.353281736374
3963,2883.0592844486237
3964,2883.7722873687744
3965,2884.4902901649475
3966,2885.2052929401398
3967,2885.928295612335
3968,2886.6532986164093
3969,2887.380301475525
3970,2888.0903041362762
3971,2888.7943069934845
3972,2889.4963097572327
3973,2890.2233126163483
3974,2890.940315246582
3975,2891.595317840576
3976,2892.2523205280304
3977,2892.9623231887817
3978,2893.7383263111115
3979,2894.496329307556
3980,2895.2323322296143
3981,2895.9483349323273
3982,2896.6533377170563
3983,2897.3473403453827
3984,2898.04634308815
3985,2898.7323458194733
3986,2899.440348625183
3987,2900.1733515262604
3988,2900.924354314804
3989,2901.682357311249
3990,2902.4453604221344
3991,2903.2023632526398
3992,2903.9453661441803
3993,2904.65536904335
3994,2905.348371744156
3995,2906.035374403
3996,2906.6973769664764
3997,2907.328379392624
3998,2907.970381975174
3999,2908.6453845500946
4000,2909.3663873672485
4001,2910.0943903923035
4002,2910.8573932647705
4003,2911.6223962306976
4004,2912.3823993206024
4005,2913.1084020137787
4006,2913.833405017853
4007,2914.5574078559875
4008,2915.287410736084
4009,2916.016413450241
4010,2916.7494163513184
4011,2917.4884192943573
4012,2918.226422071457
4013,2918.941424846649
4014,2919.662427663803
4015,2920.3954305648804
4016,2921.126433610916
4017,2921.861436367035
4018,2922.600439310074
4019,2923.336442232132
4020,2924.0714449882507
4021,2924.809448003769
4022,2925.540450811386
4023,2926.262453556061
4024,2927.0014564990997
4025,2927.7384593486786
4026,2928.4844622612
4027,2929.2164652347565
4028,2929.9534680843353
4029,2930.6974709033966
4030,2931.442473888397
4031,2932.161476612091
4032,2932.8904795646667
4033,2933.64248251915
4034,2934.406485557556
4035,2935.177488565445
4036,2935.932491540909
4037,2936.6824944019318
4038,2937.436497449875
4039,2938.183500289917
4040,2938.9315032958984
4041,2939.6785061359406
4042,2940.4025089740753
4043,2941.1185116767883
4044,2941.8385145664215
4045,2942.5515172481537
4046,2943.2635202407837
4047,2943.95752286911
4048,2944.6485254764557
4049,2945.3355281352997
4050,2946.0125308036804
4051,2946.705533504486
4052,2947.3745362758636
4053,2948.037538766861
4054,2948.716541528702
4055,2949.400544166565
4056,2950.085546731949
4057,2950.784549474716
4058,2951.4915523529053
4059,2952.186555147171
4060,2952.8835577964783
4061,2953.589560508728
4062,2954.279563188553
4063,2954.9565658569336
4064,2955.6435685157776
4065,2956.339571237564
4066,2957.049574136734
4067,2957.7255766391754
4068,2958.412579536438
4069,2959.1065821647644
4070,2959.815584897995
4071,2960.5265877246857
4072,2961.220590353012
4073,2961.938593149185
4074,2962.659595966339
4075,2963.369598865509
4076,2964.074601650238
4077,2964.810604572296
4078,2965.544607400894
4079,2966.2756102085114
4080,2967.000612974167
4081,2967.7296159267426
4082,2968.470618724823
4083,2969.2216217517853
4084,2969.9756247997284
4085,2970.7176275253296
4086,2971.470630645752
4087,2972.230633497238
4088,2972.9996366500854
4089,2973.756639480591
4090,2974.4936423301697
4091,2975.23664522171
4092,2975.9876482486725
4093,2976.749651193619
4094,2977.513654232025
4095,2978.2736570835114
4096,2979.0276601314545
4097,2979.78666305542
4098,2980.5576660633087
4099,2981.3316690921783
4100,2982.0996720790863
4101,2982.8486750125885
4102,2983.612678050995
4103,2984.377681016922
4104,2985.14968419075
4105,2985.9166870117188
4106,2986.6566898822784
4107,2987.391692876816
4108,2988.1296956539154
4109,2988.871698617935
4110,2989.600701570511
4111,2990.3407044410706
4112,2991.099707365036
4113,2991.869710445404
4114,2992.6397132873535
4115,2993.40771651268
4116,2994.1677193641663
4117,2994.910722255707
4118,2995.656725168228
4119,2996.4017281532288
4120,2997.135730981827
4121,2997.8837339878082
4122,2998.651736974716
4123,2999.4297399520874
4124,3000.208743095398
4125,3000.9937460422516
4126,3001.7807490825653
4127,3002.5497522354126
4128,3003.293755054474
4129,3004.024757862091
4130,3004.7337608337402
4131,3005.447763442993
4132,3006.1777663230896
4133,3006.933769464493
4134,3007.690772294998
4135,3008.474775314331
4136,3009.2697784900665
4137,3010.064781665802
4138,3010.843784570694
4139,3011.6247878074646
4140,3012.401790857315
4141,3013.164793729782
4142,3013.8967967033386
4143,3014.626799583435
4144,3015.3508021831512
4145,3016.0678050518036
4146,3016.7758078575134
4147,3017.4828107357025
4148,3018.2198135852814
4149,3018.933816432953
4150,3019.631819009781
4151,3020.3488218784332
4152,3021.0588245391846
4153,3021.7718274593353
4154,3022.477830171585
4155,3023.1998329162598
4156,3023.903835773468
4157,3024.577838420868
4158,3025.2688410282135
4159,3025.9628438949585
4160,3026.6608464717865
4161,3027.343849182129
4162,3028.013851881027
4163,3028.677854537964
4164,3029.3518571853638
4165,3030.032859802246
4166,3030.7118623256683
4167,3031.3688650131226
4168,3032.015867471695
4169,3032.6818702220917
4170,3033.3718729019165
4171,3034.075875520706
4172,3034.7738783359528
4173,3035.467880964279
4174,3036.141883611679
4175,3036.819886445999
4176,3037.488888978958
4177,3038.1558916568756
4178,3038.8268942832947
4179,3039.523896932602
4180,3040.2218997478485
4181,3040.9369025230408
4182,3041.652905225754
4183,3042.370908021927
4184,3043.073910713196
4185,3043.7659134864807
4186,3044.450916290283
4187,3045.136918783188
4188,3045.814921617508
4189,3046.512924194336
4190,3047.2249269485474
4191,3047.954929828644
4192,3048.6819326877594
4193,3049.4179356098175
4194,3050.1589386463165
4195,3050.8899414539337
4196,3051.6119441986084
4197,3052.3269469738007
4198,3053.0399498939514
4199,3053.7429525852203
4200,3054.4319553375244
4201,3055.1159579753876
4202,3055.812960624695
4203,3056.519963502884
4204,3057.1899659633636
4205,3057.8739688396454
4206,3058.5709714889526
4207,3059.2659742832184
4208,3059.9759769439697
4209,3060.690979719162
4210,3061.4059824943542
4211,3062.1249854564667
4212,3062.860988140106
4213,3063.6219911575317
4214,3064.3789942264557
4215,3065.1129970550537
4216,3065.845999956131
4217,3066.578002691269
4218,3067.3050055503845
4219,3068.022008419037
4220,3068.7490112781525
4221,3069.4820141792297
4222,3070.2240171432495
4223,3070.947019815445
4224,3071.669022798538
4225,3072.4020256996155
4226,3073.1330285072327
4227,3073.850031375885
4228,3074.568034172058
4229,3075.2930369377136
4230,3076.020039796829
4231,3076.73104262352
4232,3077.447045326233
4233,3078.168048143387
4234,3078.88805103302
4235,3079.578053712845
4236,3080.2500562667847
4237,3080.887058734894
4238,3081.510061264038
4239,3082.147063732147
4240,3082.808066368103
4241,3083.4880690574646
4242,3084.182071685791
4243,3084.88507437706
4244,3085.572077035904
4245,3086.2260797023773
4246,3086.858082294464
4247,3087.494084596634
4248,3088.1560871601105
4249,3088.8470900058746
4250,3089.544092655182
4251,3090.2420954704285
4252,3090.949098110199
4253,3091.670100927353
4254,3092.3871037960052
4255,3093.1041066646576
4256,3093.837109565735
4257,3094.586112499237
4258,3095.315115213394
4259,3096.054118156433
4260,3096.759120941162
4261,3097.438123703003
4262,3098.0951261520386
4263,3098.718128681183
4264,3099.3271310329437
4265,3099.9441335201263
4266,3100.5761358737946
4267,3101.225138425827
4268,3101.8881409168243
4269,3102.555143594742
4270,3103.2331461906433
4271,3103.9041488170624
4272,3104.570151567459
4273,3105.242154121399
4274,3105.928156852722
4275,3106.633159637451
4276,3107.3561623096466
4277,3108.0741653442383
4278,3108.8011679649353
4279,3109.5441710948944
4280,3110.30317401886
4281,3111.0731768608093
4282,3111.8371798992157
4283,3112.596182823181
4284,3113.3471858501434
4285,3114.0971887111664
4286,3114.871191740036
4287,3115.672194957733
4288,3116.488198041916
4289,3117.310201406479
4290,3118.143204689026
4291,3118.9802079200745
4292,3119.801211118698
4293,3120.6152143478394
4294,3121.4242174625397
4295,3122.225220680237
4296,3122.9952235221863
4297,3123.760226726532
4298,3124.5292296409607
4299,3125.311232805252
4300,3126.110235929489
4301,3126.9272389411926
4302,3127.754242181778
4303,3128.579245567322
4304,3129.3922486305237
4305,3130.1942517757416
4306,3130.9932548999786
4307,3131.783257961273
4308,3132.5552611351013
4309,3133.327264070511
4310,3134.107267141342
4311,3134.91127038002
4312,3135.722273349762
4313,3136.52627658844
4314,3137.323279619217
4315,3138.11328291893
4316,3138.900285959244
4317,3139.6772890090942
4318,3140.4662919044495
4319,3141.266295194626
4320,3142.075298309326
4321,3142.8763015270233
4322,3143.674304485321
4323,3144.47930765152
4324,3145.285310983658
4325,3146.0863139629364
4326,3146.8773171901703
4327,3147.6693201065063
4328,3148.4563233852386
4329,3149.2353262901306
4330,3149.9893293380737
4331,3150.7053320407867
4332,3151.422334909439
4333,3152.145337820053
4334,3152.866340637207
4335,3153.58434343338
4336,3154.2913460731506
4337,3154.972348690033
4338,3155.6183512210846
4339,3156.241353750229
4340,3156.8613562583923
4341,3157.4963586330414
4342,3158.1493611335754
4343,3158.8373639583588
4344,3159.601366996765
4345,3160.4423701763153
4346,3161.2983734607697
4347,3162.130376815796
4348,3162.9853801727295
4349,3163.8343834877014
4350,3164.6663868427277
4351,3165.4533898830414
4352,3166.2373929023743
4353,3166.9653956890106
4354,3167.713398694992
4355,3168.5084018707275
4356,3169.32240486145
4357,3170.1404082775116
4358,3170.9674112796783
4359,3171.8044147491455
4360,3172.6324179172516
4361,3173.423420906067
4362,3174.2174241542816
4363,3175.0224273204803
4364,3175.8344304561615
4365,3176.621433496475
4366,3177.421436548233
4367,3178.2214398384094
4368,3179.014442920685
4369,3179.7964458465576
4370,3180.5894491672516
4371,3181.379452228546
4372,3182.174455165863
4373,3182.9664583206177
4374,3183.761461496353
4375,3184.5684645175934
4376,3185.3694677352905
4377,3186.167470932007
4378,3186.9284739494324
4379,3187.687476873398
4380,3188.4694797992706
4381,3189.2734830379486
4382,3190.0934863090515
4383,3190.9224894046783
4384,3191.7524926662445
4385,3192.5774960517883
4386,3193.3914992809296
4387,3194.1685020923615
4388,3194.931505203247
4389,3195.71750831604
4390,3196.511511325836
4391,3197.3205144405365
4392,3198.1345176696777
4393,3198.9395208358765
4394,3199.739524126053
4395,3200.5525271892548
4396,3201.3605303764343
4397,3202.1735334396362
4398,3202.9925367832184
4399,3203.810539960861
4400,3204.597543001175
4401,3205.4035460948944
4402,3206.215549468994
4403,3207.031552553177
4404,3207.843555688858
4405,3208.6335587501526
4406,3209.423561811447
4407,3210.214565038681
4408,3210.9995679855347
4409,3211.7855710983276
4410,3212.5565741062164
4411,3213.3625774383545
4412,3214.181580543518
4413,3215.0025837421417
4414,3215.8225870132446
4415,3216.634590148926
4416,3217.415593147278
4417,3218.218596458435
4418,3219.0215995311737
4419,3219.8236026763916
4420,3220.6226058006287
4421,3221.416608810425
4422,3222.1956119537354
4423,3222.95361495018
4424,3223.7316179275513
4425,3224.520621061325
4426,3225.3156242370605
4427,3226.103627204895
4428,3226.900630235672
4429,3227.7006335258484
4430,3228.487636566162
4431,3229.2486395835876
4432,3230.0066425800323
4433,3230.7686455249786
4434,3231.538648366928
4435,3232.329651594162
4436,3233.1376547813416
4437,3233.9366579055786
4438,3234.727660894394
4439,3235.528664112091
4440,3236.329667329788
4441,3237.126670360565
4442,3237.892673254013
4443,3238.665676355362
4444,3239.4346792697906
4445,3240.2096824645996
4446,3240.969685316086
4447,3241.7306883335114
4448,3242.5106914043427
4449,3243.306694507599
4450,3244.1006977558136
4451,3244.875700712204
4452,3245.6627037525177
4453,3246.439706802368
4454,3247.207709789276
4455,3247.957712650299
4456,3248.717715740204
4457,3249.467718601227
4458,3250.2097215652466
4459,3250.9437243938446
4460,3251.6957273483276
4461,3252.4767303466797
4462,3253.2807335853577
4463,3254.092736721039
4464,3254.8797397613525
4465,3255.6657428741455
4466,3256.439745903015
4467,3257.19774889946
4468,3257.935751914978
4469,3258.656754732132
4470,3259.3997576236725
4471,3260.1517605781555
4472,3260.90576338768
4473,3261.644766330719
4474,3262.3847692012787
4475,3263.12877202034
4476,3263.8757750988007
4477,3264.6137778759003
4478,3265.334780693054
4479,3266.03178358078
4480,3266.6777861118317
4481,3267.324788570404
4482,3267.9897911548615
4483,3268.669793844223
4484,3269.342796564102
4485,3270.0057990550995
4486,3270.685801744461
4487,3271.385804414749
4488,3272.0988073349
4489,3272.813810110092
4490,3273.516812801361
4491,3274.22181558609
4492,3274.9298183918
4493,3275.6378211975098
4494,3276.347823858261
4495,3277.0598266124725
4496,3277.7938294410706
4497,3278.536832332611
4498,3279.283835411072
4499,3280.013838291168
4500,3280.7418410778046
4501,3281.4728438854218
4502,3282.1978466510773
4503,3282.918849468231
4504,3283.6358523368835
4505,3284.370855331421
4506,3285.122858285904
4507,3285.8808612823486
4508,3286.62486410141
4509,3287.3678669929504
4510,3288.110869884491
4511,3288.8558728694916
4512,3289.6038756370544
4513,3290.3418786525726
4514,3291.0808815956116
4515,3291.8228843212128
4516,3292.5728874206543
4517,3293.3298902511597
4518,3294.077893257141
4519,3294.8208961486816
4520,3295.566899061203
4521,3296.3249020576477
4522,3297.091905117035
4523,3297.841907978058
4524,3298.579910993576
4525,3299.3319137096405
4526,3300.0879168510437
4527,3300.8459198474884
4528,3301.6059226989746
4529,3302.350925683975
4530,3303.10692858696
4531,3303.8619315624237
4532,3304.620934486389
4533,3305.3719375133514
4534,3306.1189403533936
4535,3306.8719432353973
4536,3307.6209461688995
4537,3308.366949081421
4538,3309.099951982498
4539,3309.8509550094604
4540,3310.608958005905
4541,3311.377960920334
4542,3312.1329638957977
4543,3312.878966808319
4544,3313.6299698352814
4545,3314.3789727687836
4546,3315.1179757118225
4547,3315.840978384018
4548,3316.560981273651
4549,3317.300984144211
4550,3318.054987192154
4551,3318.81499004364
4552,3319.5579929351807
4553,3320.308995962143
4554,3321.0649988651276
4555,3321.8180017471313
4556,3322.5560047626495
4557,3323.2920076847076
4558,3324.0290105342865
4559,3324.7780134677887
4560,3325.5360164642334
4561,3326.2780191898346
4562,3327.0020220279694
4563,3327.732024908066
4564,3328.4640278816223
4565,3329.204030752182
4566,3329.9330337047577
4567,3330.675036430359
4568,3331.443039417267
4569,3332.2200424671173
4570,3332.9790456295013
4571,3333.7240483760834
4572,3334.484051465988
4573,3335.240054368973
4574,3335.9960572719574
4575,3336.726060152054
4576,3337.449063062668
4577,3338.16606593132
4578,3338.882068634033
4579,3339.591071367264
4580,3340.306074142456
4581,3341.047077178955
4582,3341.798079967499
4583,3342.5480830669403
4584,3343.283085823059
4585,3344.0210888385773
4586,3344.7550916671753
4587,3345.4890944957733
4588,3346.2090973854065
4589,3346.934100151062
4590,3347.665102958679
4591,3348.389105796814
4592,3349.1011085510254
4593,3349.8081114292145
4594,3350.5311143398285
4595,3351.270117044449
4596,3352.0131199359894
4597,3352.7511229515076
4598,3353.511125802994
4599,3354.280128955841
4600,3355.045131921768
4601,3355.7891347408295
4602,3356.5121376514435
4603,3357.2351405620575
4604,3357.9521431922913
4605,3358.6751461029053
4606,3359.3931488990784
4607,3360.122151851654
4608,3360.8731546401978
4609,3361.6521577835083
4610,3362.4221608638763
4611,3363.1841638088226
4612,3363.9581668376923
4613,3364.729169845581
4614,3365.4801726341248
4615,3366.2091755867004
4616,3366.9161784648895
4617,3367.6451811790466
4618,3368.3971841335297
4619,3369.1651871204376
4620,3369.9251902103424
4621,3370.676192998886
4622,3371.4451961517334
4623,3372.2131991386414
4624,3372.9832022190094
4625,3373.7452051639557
4626,3374.515208005905
4627,3375.2812111377716
4628,3376.0502140522003
4629,3376.8072171211243
4630,3377.550220012665
4631,3378.296222925186
4632,3379.05122590065
4633,3379.798228740692
4634,3380.5312316417694
4635,3381.222234249115
4636,3381.8752369880676
4637,3382.5242395401
4638,3383.19424200058
4639,3383.8792448043823
4640,3384.5892474651337
4641,3385.3172504901886
4642,3386.06125330925
4643,3386.8182561397552
4644,3387.5582592487335
4645,3388.298262119293
4646,3389.0422649383545
4647,3389.7892677783966
4648,3390.5172708034515
4649,3391.2362735271454
4650,3391.968276500702
4651,3392.7162792682648
4652,3393.483282327652
4653,3394.25128531456
4654,3395.0152883529663
4655,3395.794291496277
4656,3396.5692944526672
4657,3397.3492975234985
4658,3398.0983004570007
4659,3398.8513033390045
4660,3399.61230635643
4661,3400.377309322357
4662,3401.1243121623993
4663,3401.8633151054382
4664,3402.6333181858063
4665,3403.4323213100433
4666,3404.2363245487213
4667,3405.00732755661
4668,3405.7983305454254
4669,3406.59033370018
4670,3407.373336791992
4671,3408.125339746475
4672,3408.862342596054
4673,3409.5883452892303
4674,3410.314348220825
4675,3411.053351163864
4676,3411.806354045868
4677,3412.573357105255
4678,3413.3503601551056
4679,3414.1333632469177
4680,3414.903366088867
4681,3415.6463689804077
4682,3416.400372028351
4683,3417.1723749637604
4684,3417.9573781490326
4685,3418.747381210327
4686,3419.517384290695
4687,3420.2613871097565
4688,3421.006390094757
4689,3421.742393016815
4690,3422.476395845413
4691,3423.2043986320496
4692,3423.9484016895294
4693,3424.717404603958
4694,3425.535407781601
4695,3426.371411085129
4696,3427.2104144096375
4697,3428.032417535782
4698,3428.8454208374023
4699,3429.663424015045
4700,3430.4774272441864
4701,3431.2894303798676
4702,3432.097433567047
4703,3432.884436607361
4704,3433.678439617157
4705,3434.480442762375
4706,3435.3014459609985
4707,3436.1234493255615
4708,3436.9204523563385
4709,3437.7254555225372
4710,3438.533458709717
4711,3439.348461866379
4712,3440.146465063095
4713,3440.929468154907
4714,3441.716471195221
4715,3442.5164742469788
4716,3443.344477415085
4717,3444.1804807186127
4718,3444.9904839992523
4719,3445.782487154007
4720,3446.578490257263
4721,3447.3774933815002
4722,3448.1684963703156
4723,3448.948499441147
4724,3449.73450255394
4725,3450.5265057086945
4726,3451.3105087280273
4727,3452.0705115795135
4728,3452.8455147743225
4729,3453.6325178146362
4730,3454.4275209903717
4731,3455.2145240306854
4732,3456.0165271759033
4733,3456.8155303001404
4734,3457.603533267975
4735,3458.365536212921
4736,3459.122539281845
4737,3459.869542121887
4738,3460.6055450439453
4739,3461.3255479335785
4740,3462.019550561905
4741,3462.705553293228
4742,3463.4055559635162
4743,3464.1395587921143
4744,3464.897561788559
4745,3465.6715648174286
4746,3466.4465680122375
4747,3467.2125709056854
4748,3467.97257399559
4749,3468.7035768032074
4750,3469.4245796203613
4751,3470.1475825309753
4752,3470.8755853176117
4753,3471.622588157654
4754,3472.376591205597
4755,3473.1295940876007
4756,3473.893597126007
4757,3474.658600091934
4758,3475.427603006363
4759,3476.184606075287
4760,3476.916608810425
4761,3477.6436116695404
4762,3478.3586144447327
4763,3479.072617292404
4764,3479.80162024498
4765,3480.529623031616
4766,3481.2546257972717
4767,3481.9966287612915
4768,3482.752631664276
4769,3483.50763463974
4770,3484.256637573242
4771,3485.02464056015
4772,3485.8016436100006
4773,3486.5876467227936
4774,3487.3746497631073
4775,3488.155652999878
4776,3488.915655851364
4777,3489.6716587543488
4778,3490.412661790848
4779,3491.142664670944
4780,3491.861667394638
4781,3492.597670316696
4782,3493.336673259735
4783,3494.0966761112213
4784,3494.859679222107
4785,3495.60968208313
4786,3496.366685152054
4787,3497.1256880760193
4788,3497.886691093445
4789,3498.635694026947
4790,3499.3736968040466
4791,3500.1096997261047
4792,3500.842702627182
4793,3501.5857055187225
4794,3502.331708431244
4795,3503.0737113952637
4796,3503.8377141952515
4797,3504.614717245102
4798,3505.4017202854156
4799,3506.172723531723
4800,3506.920726299286
4801,3507.672729253769
4802,3508.406732082367
4803,3509.1387350559235
4804,3509.8747379779816
4805,3510.6147408485413
4806,3511.3457436561584
4807,3512.088746547699
4808,3512.8487496376038
4809,3513.6167526245117
4810,3514.3797554969788
4811,3515.133758544922
4812,3515.9027614593506
4813,3516.6727645397186
4814,3517.4357674121857
4815,3518.1747703552246
4816,3518.9007732868195
4817,3519.6327760219574
4818,3520.377779006958
4819,3521.113781929016
4820,3521.852784872055
4821,3522.5937876701355
4822,3523.3537907600403
4823,3524.1137936115265
4824,3524.879796743393
4825,3525.6597998142242
4826,3526.4348027706146
4827,3527.1748056411743
4828,3527.882808446884
4829,3528.5718111991882
4830,3529.243813753128
4831,3529.8918163776398
4832,3530.5488188266754
4833,3531.2178213596344
4834,3531.882823944092
4835,3532.539826631546
4836,3533.1758291721344
4837,3533.806831598282
4838,3534.44083404541
4839,3535.101836681366
4840,3535.775839328766
4841,3536.467842102051
4842,3537.180844783783
4843,3537.9118475914
4844,3538.640850543976
4845,3539.3758533000946
4846,3540.110856294632
4847,3540.8438591957092
4848,3541.565861940384
4849,3542.2768647670746
4850,3542.9798674583435
4851,3543.678870201111
4852,3544.365872859955
4853,3545.051875591278
4854,3545.756878376007
4855,3546.4898812770844
4856,3547.234884262085
4857,3547.979887008667
4858,3548.7198898792267
4859,3549.4648928642273
4860,3550.220895767212
4861,3550.9848988056183
4862,3551.7389018535614
4863,3552.47390460968
4864,3553.196907520294
4865,3553.9139103889465
4866,3554.621912956238
4867,3555.3379158973694
4868,3556.0719187259674
4869,3556.819921731949
4870,3557.5779247283936
4871,3558.332927465439
4872,3559.083930492401
4873,3559.8429334163666
4874,3560.5999364852905
4875,3561.353939294815
4876,3562.1019423007965
4877,3562.8459453582764
4878,3563.5749480724335
4879,3564.2979509830475
4880,3565.0169537067413
4881,3565.7399566173553
4882,3566.46195936203
4883,3567.1869621276855
4884,3567.913964986801
4885,3568.637967824936
4886,3569.365970849991
4887,3570.109973669052
4888,3570.867976665497
4889,3571.637979745865
4890,3572.413982629776
4891,3573.1899857521057
4892,3573.956988811493
4893,3574.711991786957
4894,3575.457994699478
4895,3576.192997455597
4896,3576.932000398636
4897,3577.6800034046173
4898,3578.4450063705444
4899,3579.219009399414
4900,3580.0040123462677
4901,3580.797015428543
4902,3581.5930185317993
4903,3582.3780217170715
4904,3583.1320247650146
4905,3583.881027698517
4906,3584.6300303936005
4907,3585.375033378601
4908,3586.119036436081
4909,3586.863039255142
4910,3587.6110422611237
4911,3588.365045070648
4912,3589.105047941208
4913,3589.8240509033203
4914,3590.5050535202026
4915,3591.167056083679
4916,3591.8210587501526
4917,3592.4960613250732
4918,3593.187063932419
4919,3593.8400666713715
4920,3594.4760689735413
4921,3595.0970714092255
4922,3595.709073781967
4923,3596.309076309204
4924,3596.90207862854
4925,3597.4970808029175
4926,3598.11208319664
4927,3598.7640857696533
4928,3599.475088596344
4929,3600.2500915527344
4930,3601.0060946941376
4931,3601.7220973968506
4932,3602.449100255966
4933,3603.186103105545
4934,3603.9311060905457
4935,3604.6821088790894
4936,3605.4331119060516
4937,3606.1721148490906
4938,3606.8881175518036
4939,3607.553120136261
4940,3608.2221229076385
4941,3608.8881254196167
4942,3609.555128097534
4943,3610.2341306209564
4944,3610.8941333293915
4945,3611.5441358089447
4946,3612.167138338089
4947,3612.8121407032013
4948,3613.491143465042
4949,3614.198146343231
4950,3614.9061489105225
4951,3615.6341519355774
4952,3616.375154733658
4953,3617.1231577396393
4954,3617.876160621643
4955,3618.6271636486053
4956,3619.396166563034
4957,3620.169169664383
4958,3620.9441726207733
4959,3621.7121756076813
4960,3622.4741785526276
4961,3623.2231814861298
4962,3623.992184638977
4963,3624.773187637329
4964,3625.5611906051636
4965,3626.35919380188
4966,3627.160197019577
4967,3627.9632000923157
4968,3628.782203435898
4969,3629.5982065200806
4970,3630.411209821701
4971,3631.2202129364014
4972,3632.026216030121
4973,3632.823219060898
4974,3633.6152222156525
4975,3634.410225391388
4976,3635.2082285881042
4977,3636.0072317123413
4978,3636.8112347126007
4979,3637.620237827301
4980,3638.4332411289215
4981,3639.2142441272736
4982,3639.9712471961975
4983,3640.756250143051
4984,3641.5512533187866
4985,3642.3672564029694
4986,3643.188259601593
4987,3643.974262714386
4988,3644.7322657108307
4989,3645.5022687911987
4990,3646.2742717266083
4991,3647.0492749214172
4992,3647.83127784729
4993,3648.604280948639
4994,3649.374284029007
4995,3650.152287006378
4996,3650.9242899417877
4997,3651.696293115616
4998,3652.457295894623
4999,3653.1892988681793
5000,3653.9393017292023
5001,3654.6873047351837
5002,3655.4393076896667
5003,3656.1923105716705
5004,3656.925313472748
5005,3657.661316394806
5006,3658.395319223404
5007,3659.1233220100403
5008,3659.8413248062134
5009,3660.5483276844025
5010,3661.2633304595947
5011,3661.9893333911896
5012,3662.7213361263275
5013,3663.448338985443
5014,3664.171341896057
5015,3664.893344640732
5016,3665.6063475608826
5017,3666.3073501586914
5018,3667.0113530158997
5019,3667.707355737686
5020,3668.4063584804535
5021,3669.084361076355
5022,3669.755363702774
5023,3670.468366384506
5024,3671.196369409561
5025,3671.9453723430634
5026,3672.6873750686646
5027,3673.4443781375885
5028,3674.200381040573
5029,3674.9533841609955
5030,3675.6883869171143
5031,3676.4033896923065
5032,3677.115392446518
5033,3677.8213951587677
5034,3678.5213980674744
5035,3679.2034006118774
5036,3679.8744032382965
5037,3680.559406042099
5038,3681.248408794403
5039,3681.9274113178253
5040,3682.604413986206
5041,3683.2864167690277
5042,3683.962419271469
5043,3684.6274218559265
5044,3685.2774243354797
5045,3685.929426908493
5046,3686.571429491043
5047,3687.224431991577
5048,3687.8834347724915
5049,3688.5324370861053
5050,3689.1974399089813
5051,3689.8744423389435
5052,3690.5604450702667
5053,3691.24844789505
5054,3691.932450532913
5055,3692.5924530029297
5056,3693.231455564499
5057,3693.8454580307007
5058,3694.461460351944
5059,3695.0934629440308
5060,3695.7504653930664
5061,3696.4024679660797
5062,3697.0484704971313
5063,3697.6874730587006
5064,3698.32647562027
5065,3698.9664781093597
5066,3699.6234805583954
5067,3700.301483154297
5068,3700.9944858551025
5069,3701.708488702774
5070,3702.449491739273
5071,3703.2094945907593
5072,3703.980497598648
5073,3704.732500553131
5074,3705.4885034561157
5075,3706.234506368637
5076,3706.970509290695
5077,3707.69651222229
5078,3708.4075150489807
5079,3709.114517688751
5080,3709.8135204315186
5081,3710.52552318573
5082,3711.234526157379
5083,3711.964528799057
5084,3712.695531845093
5085,3713.429534673691
5086,3714.173537492752
5087,3714.9205405712128
5088,3715.667543411255
5089,3716.414546251297
5090,3717.155549287796
5091,3717.8885521888733
5092,3718.628555059433
5093,3719.3745579719543
5094,3720.1195607185364
5095,3720.8635637760162
5096,3721.6075665950775
5097,3722.371569633484
5098,3723.1425726413727
5099,3723.9115755558014
5100,3724.6815786361694
5101,3725.4515817165375
5102,3726.210584640503
5103,3726.947587490082
5104,3727.6915905475616
5105,3728.4285933971405
5106,3729.1545960903168
5107,3729.8675990104675
5108,3730.5416016578674
5109,3731.200604200363
5110,3731.8836069107056
5111,3732.5786097049713
5112,3733.3016123771667
5113,3734.052615404129
5114,3734.8276183605194
5115,3735.6106214523315
5116,3736.3916244506836
5117,3737.1646275520325
5118,3737.928630590439
5119,3738.6836335659027
5120,3739.4206364154816
5121,3740.145639181137
5122,3740.884642124176
5123,3741.6436450481415
5124,3742.422648191452
5125,3743.214651107788
5126,3743.9946541786194
5127,3744.7796573638916
5128,3745.558660507202
5129,3746.327663421631
5130,3747.097666501999
5131,3747.865669488907
5132,3748.632672548294
5133,3749.3946754932404
5134,3750.1436784267426
5135,3750.904681444168
5136,3751.6776843070984
5137,3752.467687368393
5138,3753.2386903762817
5139,3754.018693447113
5140,3754.8146965503693
5141,3755.611699819565
5142,3756.3887028694153
5143,3757.170705795288
5144,3757.9497089385986
5145,3758.7237119674683
5146,3759.492714881897
5147,3760.2567179203033
5148,3761.0407209396362
5149,3761.83172416687
5150,3762.6357271671295
5151,3763.432730436325
5152,3764.2217333316803
5153,3765.0147366523743
5154,3765.799739599228
5155,3766.561742544174
5156,3767.318745613098
5157,3768.089748620987
5158,3768.8647515773773
5159,3769.6397547721863
