,ECG_peaks
0,0.0
1,0.6610021591186523
2,1.3280041217803955
3,2.0120060443878174
4,2.7030081748962402
5,3.394010305404663
6,4.079012393951416
7,4.74701452255249
8,5.4050164222717285
9,6.050018310546875
10,6.705020427703857
11,7.354022264480591
12,7.973024129867554
13,8.61202621459961
14,9.297028303146362
15,10.007030248641968
16,10.724032402038574
17,11.434034585952759
18,12.132036685943604
19,12.833038806915283
20,13.52004098892212
21,14.194042921066284
22,14.852045059204102
23,15.509047031402588
24,16.179049015045166
25,16.869051218032837
26,17.56005311012268
27,18.259055376052856
28,18.955057382583618
29,19.641059398651123
30,20.318061590194702
31,20.996063709259033
32,21.67206573486328
33,22.298067569732666
34,22.896069288253784
35,23.497071266174316
36,24.090072870254517
37,24.693074703216553
38,25.28507661819458
39,25.856078386306763
40,26.4300799369812
41,27.021081924438477
42,27.624083757400513
43,28.237085580825806
44,28.86808753013611
45,29.517089366912842
46,30.191091537475586
47,30.863093376159668
48,31.54809546470642
49,32.24309754371643
50,32.95209980010986
51,33.65210199356079
52,34.35110402107239
53,35.04710602760315
54,35.73510813713074
55,36.40411019325256
56,37.05411219596863
57,37.65511393547058
58,38.24711585044861
59,38.85411763191223
60,39.48711943626404
61,40.15812158584595
62,40.85612368583679
63,41.578125953674316
64,42.31012797355652
65,43.046130418777466
66,43.777132511138916
67,44.50613474845886
68,45.22213697433472
69,45.91713905334473
70,46.60114097595215
71,47.2841432094574
72,47.96714520454407
73,48.67714738845825
74,49.40114951133728
75,50.15615177154541
76,50.92415404319763
77,51.68315649032593
78,52.4501588344574
79,53.21916103363037
80,53.96716332435608
81,54.68516564369202
82,55.35916757583618
83,56.00116944313049
84,56.62117147445679
85,57.249173402786255
86,57.897175312042236
87,58.56517720222473
88,59.22517919540405
89,59.892181396484375
90,60.581183433532715
91,61.31018567085266
92,62.031187772750854
93,62.74218988418579
94,63.44119191169739
95,64.1341941356659
96,64.83419632911682
97,65.53819847106934
98,66.23920059204102
99,66.93820261955261
100,67.63120460510254
101,68.32020688056946
102,69.01920890808105
103,69.71421098709106
104,70.41121315956116
105,71.11421513557434
106,71.8172173500061
107,72.50921940803528
108,73.18022155761719
109,73.83222341537476
110,74.48522543907166
111,75.13622736930847
112,75.80922937393188
113,76.47923159599304
114,77.14923357963562
115,77.83423566818237
116,78.51923775672913
117,79.19623970985413
118,79.87824177742004
119,80.5502438545227
120,81.18124580383301
121,81.79524755477905
122,82.40824937820435
123,83.0312511920929
124,83.65525317192078
125,84.30525517463684
126,84.98125720024109
127,85.6852593421936
128,86.39626145362854
129,87.08726358413696
130,87.73126554489136
131,88.34126734733582
132,88.9522693157196
133,89.57527112960815
134,90.21727299690247
135,90.88327503204346
136,91.56127715110779
137,92.20727896690369
138,92.82628083229065
139,93.42428278923035
140,94.01328444480896
141,94.634286403656
142,95.27228832244873
143,95.91029024124146
144,96.54429221153259
145,97.17129397392273
146,97.78229594230652
147,98.38029766082764
148,98.966299533844
149,99.53630113601685
150,100.09230303764343
151,100.64130449295044
152,101.19230628013611
153,101.75930786132812
154,102.36730980873108
155,103.00631165504456
156,103.66431379318237
157,104.33231568336487
158,104.99931788444519
159,105.67631983757019
160,106.34132194519043
161,106.98832368850708
162,107.61732578277588
163,108.24132752418518
164,108.84332942962646
165,109.43133115768433
166,110.02933287620544
167,110.6463348865509
168,111.26433682441711
169,111.88333868980408
170,112.50034046173096
171,113.12934231758118
172,113.78134441375732
173,114.4423463344574
174,115.12234830856323
175,115.80635046958923
176,116.48235249519348
177,117.16535449028015
178,117.83635663986206
179,118.52135872840881
180,119.21636080741882
181,119.92736291885376
182,120.61136507987976
183,121.24936699867249
184,121.84036874771118
185,122.40637040138245
186,122.97737216949463
187,123.56237387657166
188,124.16537570953369
189,124.78237771987915
190,125.41737961769104
191,126.05138158798218
192,126.67738342285156
193,127.29838514328003
194,127.924387216568
195,128.55938911437988
196,129.17839097976685
197,129.8143928050995
198,130.46039485931396
199,131.0853967666626
200,131.7053985595703
201,132.30340027809143
202,132.88340210914612
203,133.4504039287567
204,134.01540565490723
205,134.56740713119507
206,135.11040878295898
207,135.64441061019897
208,136.17141199111938
209,136.6944136619568
210,137.20941519737244
211,137.71741676330566
212,138.21941828727722
213,138.71641969680786
214,139.20842123031616
215,139.70242285728455
216,140.19442415237427
217,140.6894257068634
218,141.1814272403717
219,141.67242884635925
220,142.1604301929474
221,142.64743161201477
222,143.13843321800232
223,143.62743473052979
224,144.16443634033203
225,144.60743761062622
226,145.09143900871277
227,145.57144045829773
228,146.0514419078827
229,146.53244352340698
230,147.01644492149353
231,147.4964463710785
232,147.9774477481842
233,148.45444917678833
234,148.92945075035095
235,149.40145206451416
236,149.87345361709595
237,150.3464550971985
238,150.82145643234253
239,151.3064579963684
240,151.80145931243896
241,152.3074610233307
242,152.821462392807
243,153.35546398162842
244,153.9064657688141
245,154.4514675140381
246,154.98946905136108
247,155.51747059822083
248,156.03647232055664
249,156.54747366905212
250,157.05547523498535
251,157.56447672843933
252,158.0754783153534
253,158.5944800376892
254,159.11948156356812
255,159.65648317337036
256,160.19948482513428
257,160.74948644638062
258,161.30148816108704
259,161.85748982429504
260,162.41749143600464
261,162.9774932861328
262,163.52949476242065
263,164.07049655914307
264,164.6094982624054
265,165.15349984169006
266,165.7145013809204
267,166.2835032939911
268,166.86850500106812
269,167.45150685310364
270,168.030508518219
271,168.6215102672577
272,169.1905119419098
273,169.7445137500763
274,170.29751539230347
275,170.8565170764923
276,171.41251873970032
277,171.97852039337158
278,172.54552221298218
279,173.11552381515503
280,173.6685254573822
281,174.20752716064453
282,174.76152896881104
283,175.35453057289124
284,175.97053241729736
285,176.60653448104858
286,177.23853635787964
287,177.8465383052826
288,178.44354009628296
289,179.03054189682007
290,179.6045434474945
291,180.1825451850891
292,180.77854704856873
293,181.40954899787903
294,182.06355094909668
295,182.72255301475525
296,183.37455487251282
297,183.99255681037903
298,184.59255862236023
299,185.19956040382385
300,185.8295624256134
301,186.45856428146362
302,187.09456610679626
303,187.74456810951233
304,188.38357019424438
305,188.99157190322876
306,189.60257387161255
307,190.2075755596161
308,190.82457756996155
309,191.45157933235168
310,192.08158135414124
311,192.71458315849304
312,193.37158513069153
313,194.03158712387085
314,194.67958903312683
315,195.32259106636047
316,195.97559309005737
317,196.61959505081177
318,197.22359681129456
319,197.8315987586975
320,198.45460057258606
321,199.1036024093628
322,199.76260447502136
323,200.4276065826416
324,201.1026086807251
325,201.7886106967926
326,202.46161270141602
327,203.13261461257935
328,203.81061673164368
329,204.4796187877655
330,205.1196208000183
331,205.77062273025513
332,206.4116246700287
333,207.05062651634216
334,207.6626284122467
335,208.2956302165985
336,208.9466323852539
337,209.5946342945099
338,210.24363613128662
339,210.90563821792603
340,211.57164025306702
341,212.219642162323
342,212.8906443119049
343,213.54664611816406
344,214.17064809799194
345,214.77265000343323
346,215.3806517124176
347,216.0006537437439
348,216.6136555671692
349,217.23165726661682
350,217.86165928840637
351,218.48566126823425
352,219.10266304016113
353,219.7106649875641
354,220.32366681098938
355,220.94266867637634
356,221.56667041778564
357,222.1926724910736
358,222.81967425346375
359,223.42567610740662
360,224.0166778564453
361,224.6096796989441
362,225.18068146705627
363,225.73868322372437
364,226.2976849079132
365,226.87168645858765
366,227.44368815422058
367,228.02368998527527
368,228.6156919002533
369,229.2086935043335
370,229.80069541931152
371,230.37669706344604
372,230.9626989364624
373,231.54670071601868
374,232.12470245361328
375,232.7187042236328
376,233.33770608901978
377,233.9867081642151
378,234.6417100429535
379,235.27371191978455
380,235.93171405792236
381,236.57271599769592
382,237.1987178325653
383,237.82871961593628
384,238.46072149276733
385,239.07272338867188
386,239.6867253780365
387,240.2997272014618
388,240.93672919273376
389,241.59773111343384
390,242.3137333393097
391,243.04973554611206
392,243.75073766708374
393,244.42373967170715
394,245.09374165534973
395,245.74574375152588
396,246.39274549484253
397,247.04174757003784
398,247.6827495098114
399,248.30675148963928
400,248.95175337791443
401,249.60775542259216
402,250.24875736236572
403,250.88675928115845
404,251.53876113891602
405,252.1827630996704
406,252.82776498794556
407,253.4597671031952
408,254.0887689590454
409,254.69977068901062
410,255.29577255249023
411,255.87177419662476
412,256.45177602767944
413,257.06477785110474
414,257.7017798423767
415,258.34478187561035
416,258.998783826828
417,259.66578578948975
418,260.3327877521515
419,260.9947898387909
420,261.6367917060852
421,262.2607936859131
422,262.8767955303192
423,263.4917974472046
424,264.10879921913147
425,264.7298011779785
426,265.3428030014038
427,265.9488048553467
428,266.5688066482544
429,267.1868085861206
430,267.8038103580475
431,268.4258122444153
432,269.04981422424316
433,269.68081617355347
434,270.2918179035187
435,270.8988196849823
436,271.50482153892517
437,272.10682344436646
438,272.7048251628876
439,273.31782698631287
440,273.93782901763916
441,274.5608308315277
442,275.191832780838
443,275.8338346481323
444,276.4868366718292
445,277.13383865356445
446,277.7608404159546
447,278.38184237480164
448,278.99084424972534
449,279.58884596824646
450,280.17084789276123
451,280.74484944343567
452,281.31785130500793
453,281.90085315704346
454,282.50685477256775
455,283.07785654067993
456,283.66285848617554
457,284.2668602466583
458,284.87186193466187
459,285.4658639431
460,286.0398654937744
461,286.60586738586426
462,287.1718690395355
463,287.7428708076477
464,288.33087253570557
465,288.91487431526184
466,289.5028760433197
467,290.0958778858185
468,290.69687962532043
469,291.3008813858032
470,291.9028832912445
471,292.49488520622253
472,293.0778868198395
473,293.65288853645325
474,294.23289036750793
475,294.8208920955658
476,295.40889382362366
477,295.9858956336975
478,296.5638973712921
479,297.15989923477173
480,297.7609009742737
481,298.36490297317505
482,298.96890473365784
483,299.5699064731598
484,300.1769082546234
485,300.7939102649689
486,301.4249122142792
487,302.0629141330719
488,302.69891595840454
489,303.3349177837372
490,303.95891976356506
491,304.56492161750793
492,305.1669235229492
493,305.74292516708374
494,306.2929267883301
495,306.8379285335541
496,307.37993025779724
497,307.9209318161011
498,308.44493341445923
499,308.9669349193573
500,309.4939365386963
501,310.02893805503845
502,310.57793974876404
503,311.11394143104553
504,311.6409430503845
505,312.15794467926025
506,312.6749460697174
507,313.194947719574
508,313.7269494533539
509,314.26595091819763
510,314.7969524860382
511,315.3569543361664
512,315.9369559288025
513,316.5419578552246
514,317.15195965766907
515,317.76496148109436
516,318.38896346092224
517,319.00896525382996
518,319.6129672527313
519,320.185968875885
520,320.73797059059143
521,321.28097224235535
522,321.80997371673584
523,322.33997535705566
524,322.8729770183563
525,323.4129786491394
526,323.94598031044006
527,324.4699819087982
528,324.9769833087921
529,325.4879848957062
530,325.99898648262024
531,326.52698802948
532,327.0629897117615
533,327.5819911956787
534,328.10399293899536
535,328.6319944858551
536,329.16399598121643
537,329.70499777793884
538,330.23399925231934
539,330.749000787735
540,331.26200246810913
541,331.776004076004
542,332.29500555992126
543,332.82400703430176
544,333.35800886154175
545,333.9020104408264
546,334.451012134552
547,335.00101375579834
548,335.54601526260376
549,336.0740170478821
550,336.59101843833923
551,337.10802006721497
552,337.6210217475891
553,338.12702322006226
554,338.63202476501465
555,339.1400263309479
556,339.65802788734436
557,340.184029340744
558,340.72103095054626
559,341.25903272628784
560,341.8050343990326
561,342.3560359477997
562,342.90903759002686
563,343.46503925323486
564,344.0240409374237
565,344.5890426635742
566,345.1620445251465
567,345.7450461387634
568,346.3360481262207
569,346.93204975128174
570,347.49505162239075
571,348.0390532016754
572,348.58405470848083
573,349.1180565357208
574,349.6470580101013
575,350.191059589386
576,350.75506138801575
577,351.3230631351471
578,351.89106488227844
579,352.4550664424896
580,353.0280683040619
581,353.61106991767883
582,354.1950716972351
583,354.7420735359192
584,355.28207516670227
585,355.82607674598694
586,356.36607837677
587,356.9130799770355
588,357.4790816307068
589,358.06908345222473
590,358.67008543014526
591,359.26308703422546
592,359.8510890007019
593,360.4440906047821
594,361.0420925617218
595,361.6510944366455
596,362.272096157074
597,362.9030981063843
598,363.5320999622345
599,364.15810203552246
600,364.7891037464142
601,365.411105632782
602,366.0341076850891
603,366.6551094055176
604,367.27211141586304
605,367.909113407135
606,368.5551152229309
607,369.22011733055115
608,369.8901193141937
609,370.566121339798
610,371.24512338638306
611,371.92012548446655
612,372.5761275291443
613,373.2161293029785
614,373.84313130378723
615,374.4711332321167
616,375.09913516044617
617,375.73813700675964
618,376.3811390399933
619,377.0181407928467
620,377.65714287757874
621,378.2961447238922
622,378.90814661979675
623,379.5201485157013
624,380.1551504135132
625,380.8011522293091
626,381.4701542854309
627,382.1411564350128
628,382.81415843963623
629,383.46916031837463
630,384.09216237068176
631,384.7121641635895
632,385.34416604042053
633,385.9961678981781
634,386.65717005729675
635,387.3351721763611
636,387.98017406463623
637,388.6211760044098
638,389.22917771339417
639,389.8161795139313
640,390.3861813545227
641,390.94318294525146
642,391.4981846809387
643,392.0621864795685
644,392.63918805122375
645,393.22818994522095
646,393.83219170570374
647,394.45219349861145
648,395.0971956253052
649,395.7681975364685
650,396.44219970703125
651,397.1112017631531
652,397.75020360946655
653,398.39220547676086
654,399.04720759391785
655,399.73120951652527
656,400.43421173095703
657,401.13821387290955
658,401.84821605682373
659,402.5482180118561
660,403.23822021484375
661,403.90622210502625
662,404.5762243270874
663,405.25422620773315
664,405.95822834968567
665,406.65923047065735
666,407.36723279953003
667,408.08623480796814
668,408.8282370567322
669,409.5372393131256
670,410.2382414340973
671,410.94324350357056
672,411.66224575042725
673,412.35924768447876
674,413.02724981307983
675,413.6922519207001
676,414.3582537174225
677,415.0382559299469
678,415.68525791168213
679,416.34325981140137
680,417.0192618370056
681,417.7212641239166
682,418.39426612854004
683,419.0862681865692
684,419.7822701931
685,420.4882724285126
686,421.18527460098267
687,421.85727643966675
688,422.52127861976624
689,423.1872806549072
690,423.85428261756897
691,424.4942843914032
692,425.09828639030457
693,425.67528796195984
694,426.24528980255127
695,426.8462915420532
696,427.49129366874695
697,428.15929555892944
698,428.8312976360321
699,429.50029969215393
700,430.16230154037476
701,430.80830359458923
702,431.4473054409027
703,432.0873074531555
704,432.73930954933167
705,433.399311542511
706,434.0353133678436
707,434.6703152656555
708,435.31731724739075
709,435.9913191795349
710,436.68932151794434
711,437.37532353401184
712,438.05232548713684
713,438.7283275127411
714,439.39132952690125
715,440.0433316230774
716,440.69733357429504
717,441.36133551597595
718,442.0283374786377
719,442.6863396167755
720,443.3593416213989
721,444.04834365844727
722,444.7483458518982
723,445.4383478164673
724,446.11934995651245
725,446.79235196113586
726,447.42735385894775
727,448.0173556804657
728,448.6213574409485
729,449.2653594017029
730,449.91336131095886
731,450.5733633041382
732,451.25036549568176
733,451.96936774253845
734,452.66436982154846
735,453.3623719215393
736,454.05837392807007
737,454.7533760070801
738,455.4113781452179
739,456.0623800754547
740,456.7193820476532
741,457.39738416671753
742,458.0913860797882
743,458.7843883037567
744,459.49739050865173
745,460.23939275741577
746,460.96939492225647
747,461.6543970108032
748,462.32139897346497
749,462.97840094566345
750,463.6614029407501
751,464.3364050388336
752,464.9774069786072
753,465.6194088459015
754,466.2974109649658
755,467.00741314888
756,467.7284152507782
757,468.4504175186157
758,469.17241978645325
759,469.8884217739105
760,470.57742404937744
761,471.24142599105835
762,471.91642808914185
763,472.59843015670776
764,473.285432100296
765,473.9664342403412
766,474.6744363307953
767,475.40643858909607
768,476.1524407863617
769,476.86344289779663
770,477.5614449977875
771,478.24044704437256
772,478.9184491634369
773,479.58345127105713
774,480.24345326423645
775,480.9144551753998
776,481.60245728492737
777,482.30545949935913
778,482.9924614429474
779,483.68646359443665
780,484.39946579933167
781,485.11346793174744
782,485.801470041275
783,486.49947214126587
784,487.1924741268158
785,487.88847637176514
786,488.5624783039093
787,489.24348044395447
788,489.92448258399963
789,490.60848450660706
790,491.27848649024963
791,491.90348839759827
792,492.54749035835266
793,493.207492351532
794,493.89749455451965
795,494.6284966468811
796,495.35949897766113
797,496.086501121521
798,496.81350326538086
799,497.49250531196594
800,498.1485073566437
801,498.779509305954
802,499.3755111694336
803,499.95451283454895
804,500.5265145301819
805,501.1085162162781
806,501.7225182056427
807,502.37452006340027
808,503.06252217292786
809,503.7785243988037
810,504.48952651023865
811,505.18052864074707
812,505.8535306453705
813,506.5205326080322
814,507.1815347671509
815,507.8455367088318
816,508.5165386199951
817,509.2285408973694
818,509.93854308128357
819,510.6495451927185
820,511.36954736709595
821,512.1095495223999
822,512.8375518321991
823,513.5505540370941
824,514.2715561389923
825,514.9915583133698
826,515.696560382843
827,516.3865625858307
828,517.08056473732
829,517.7795667648315
830,518.499568939209
831,519.2355711460114
832,519.9775733947754
833,520.7405757904053
834,521.4845778942108
835,522.2085802555084
836,522.9275822639465
837,523.6345844268799
838,524.3235864639282
839,524.997588634491
840,525.6755907535553
841,526.3725926876068
842,527.0915949344635
843,527.813597202301
844,528.5345993041992
845,529.2526013851166
846,529.96160364151
847,530.6576056480408
848,531.3436079025269
849,532.0106098651886
850,532.6696119308472
851,533.349613904953
852,534.0456159114838
853,534.7586181163788
854,535.4756202697754
855,536.1966226100922
856,536.9046247005463
857,537.6076266765594
858,538.284628868103
859,538.966630935669
860,539.6826329231262
861,540.4196352958679
862,541.1586375236511
863,541.8806397914886
864,542.5766417980194
865,543.2556438446045
866,543.9166457653046
867,544.5316476821899
868,545.1566495895386
869,545.8286516666412
870,546.5366537570953
871,547.2406558990479
872,547.9346580505371
873,548.6336600780487
874,549.3506622314453
875,550.0846645832062
876,550.8236668109894
877,551.5836689472198
878,552.3586714267731
879,553.1066737174988
880,553.8656759262085
881,554.6316783428192
882,555.3716804981232
883,556.0846827030182
884,556.7946848869324
885,557.5066869258881
886,558.2386891841888
887,558.9856915473938
888,559.7096936702728
889,560.4316959381104
890,561.1666979789734
891,561.88370013237
892,562.5897023677826
893,563.3007044792175
894,564.0187065601349
895,564.7117087841034
896,565.3967108726501
897,566.0727128982544
898,566.7677149772644
899,567.4697170257568
900,568.1627192497253
901,568.8417212963104
902,569.5257234573364
903,570.2137253284454
904,570.8877274990082
905,571.5227293968201
906,572.1347312927246
907,572.7487330436707
908,573.3857350349426
909,574.0447371006012
910,574.7397391796112
911,575.4327411651611
912,576.1347434520721
913,576.843745470047
914,577.5657477378845
915,578.2707498073578
916,578.9567518234253
917,579.6367540359497
918,580.323755979538
919,581.0227582454681
920,581.7067601680756
921,582.3767621517181
922,583.0547642707825
923,583.7437663078308
924,584.4157683849335
925,585.0327701568604
926,585.6557722091675
927,586.260773897171
928,586.8937759399414
929,587.5577778816223
930,588.200779914856
931,588.8227818012238
932,589.4417836666107
933,590.0637855529785
934,590.6937873363495
935,591.3277893066406
936,591.9767913818359
937,592.6447932720184
938,593.3307952880859
939,594.0227973461151
940,594.7147996425629
941,595.4028017520905
942,596.0878036022186
943,596.7568056583405
944,597.4528079032898
945,598.1538100242615
946,598.8478121757507
947,599.5338141918182
948,600.2228162288666
949,600.9078183174133
950,601.545820236206
951,602.1498219966888
952,602.767823934555
953,603.3878257274628
954,604.0138278007507
955,604.6698296070099
956,605.3118317127228
957,605.9298334121704
958,606.5608353614807
959,607.2108373641968
960,607.8558392524719
961,608.5148413181305
962,609.1878433227539
963,609.8778455257416
964,610.590847492218
965,611.3178498744965
966,612.0388519763947
967,612.7388541698456
968,613.4428563117981
969,614.1838583946228
970,614.9248607158661
971,615.6778628826141
972,616.4168651103973
973,617.1298673152924
974,617.8318696022034
975,618.5538716316223
976,619.283873796463
977,619.9958760738373
978,620.7188782691956
979,621.4218804836273
980,622.0958824157715
981,622.7738845348358
982,623.4548864364624
983,624.1378886699677
984,624.8308906555176
985,625.53289270401
986,626.2568950653076
987,626.9838972091675
988,627.7098994255066
989,628.4399015903473
990,629.1539037227631
991,629.8459057807922
992,630.5529079437256
993,631.2789101600647
994,632.0079123973846
995,632.7449145317078
996,633.4829168319702
997,634.1999189853668
998,634.9129211902618
999,635.6329233646393
1000,636.3559255599976
1001,637.1029279232025
1002,637.8619301319122
1003,638.6269323825836
1004,639.391934633255
1005,640.1509370803833
1006,640.8759391307831
1007,641.5629413127899
1008,642.2279434204102
1009,642.8579452037811
1010,643.4739470481873
1011,644.1149489879608
1012,644.7689509391785
1013,645.4199528694153
1014,646.0969550609589
1015,646.7999572753906
1016,647.5259592533112
1017,648.2529616355896
1018,648.9629638195038
1019,649.636965751648
1020,650.2959678173065
1021,650.9699697494507
1022,651.658971786499
1023,652.3599739074707
1024,653.0779762268066
1025,653.8169784545898
1026,654.5489807128906
1027,655.2739827632904
1028,655.9849848747253
1029,656.7069871425629
1030,657.4349894523621
1031,658.1829915046692
1032,658.932993888855
1033,659.6789960861206
1034,660.4119982719421
1035,661.128000497818
1036,661.823002576828
1037,662.5290048122406
1038,663.2590069770813
1039,663.9950091838837
1040,664.7120113372803
1041,665.426013469696
1042,666.137015581131
1043,666.8400177955627
1044,667.5610198974609
1045,668.3020222187042
1046,669.0280244350433
1047,669.7370264530182
1048,670.4150285720825
1049,671.0780305862427
1050,671.7590327262878
1051,672.4500348567963
1052,673.1720368862152
1053,673.877039194107
1054,674.5470411777496
1055,675.2230432033539
1056,675.9090452194214
1057,676.6160473823547
1058,677.3440496921539
1059,678.0450518131256
1060,678.7430539131165
1061,679.440055847168
1062,680.1380579471588
1063,680.8310601711273
1064,681.5350623130798
1065,682.2240643501282
1066,682.904066324234
1067,683.5520684719086
1068,684.209070444107
1069,684.8930723667145
1070,685.6080746650696
1071,686.328076839447
1072,687.0450789928436
1073,687.7640810012817
1074,688.4860832691193
1075,689.1920855045319
1076,689.8700873851776
1077,690.5310895442963
1078,691.2050914764404
1079,691.9260938167572
1080,692.6680958271027
1081,693.4330983161926
1082,694.2221007347107
1083,694.9951028823853
1084,695.7531051635742
1085,696.4841074943542
1086,697.1681096553802
1087,697.8271114826202
1088,698.4841134548187
1089,699.1571156978607
1090,699.8341176509857
1091,700.4821195602417
1092,701.1301214694977
1093,701.8061234951019
1094,702.5051257610321
1095,703.2221279144287
1096,703.9491300582886
1097,704.6651322841644
1098,705.3521342277527
1099,706.0131363868713
1100,706.7051384449005
1101,707.4341406822205
1102,708.1761429309845
1103,708.9221451282501
1104,709.667147397995
1105,710.3751494884491
1106,711.0741517543793
1107,711.775153875351
1108,712.4531557559967
1109,713.0971577167511
1110,713.7351596355438
1111,714.3771617412567
1112,715.0121636390686
1113,715.6591656208038
1114,716.2931673526764
1115,716.9131693840027
1116,717.544171333313
1117,718.1931731700897
1118,718.8541750907898
1119,719.51917719841
1120,720.1991791725159
1121,720.8861813545227
1122,721.5671834945679
1123,722.2711856365204
1124,723.0051877498627
1125,723.7611899375916
1126,724.5131924152374
1127,725.2551946640015
1128,725.9911968708038
1129,726.7141990661621
1130,727.4442012310028
1131,728.1862034797668
1132,728.9282057285309
1133,729.6882078647614
1134,730.4662103652954
1135,731.2342126369476
1136,731.9872148036957
1137,732.7132170200348
1138,733.4162192344666
1139,734.1062214374542
1140,734.8382234573364
1141,735.5752258300781
1142,736.3322281837463
1143,737.1152303218842
1144,737.8712327480316
1145,738.6002349853516
1146,739.3182370662689
1147,740.0272393226624
1148,740.7372415065765
1149,741.4472434520721
1150,742.1602456569672
1151,742.8842477798462
1152,743.618250131607
1153,744.3532524108887
1154,745.0792546272278
1155,745.8052568435669
1156,746.5262589454651
1157,747.2472610473633
1158,747.9392631053925
1159,748.6332652568817
1160,749.32226729393
1161,750.0242695808411
1162,750.74627161026
1163,751.4852738380432
1164,752.2212760448456
1165,752.9372782707214
1166,753.6502804756165
1167,754.336282491684
1168,754.9822845458984
1169,755.6352865695953
1170,756.3122885227203
1171,757.0222907066345
1172,757.7362928390503
1173,758.4682950973511
1174,759.2362973690033
1175,760.0252997875214
1176,760.8133020401001
1177,761.5843045711517
1178,762.3263068199158
1179,763.0693089962006
1180,763.8253111839294
1181,764.5793135166168
1182,765.307315826416
1183,766.0453178882599
1184,766.7943203449249
1185,767.5243225097656
1186,768.231324672699
1187,768.9413266181946
1188,769.6643288135529
1189,770.3953311443329
1190,771.1083333492279
1191,771.8093354701996
1192,772.5073375701904
1193,773.2073395252228
1194,773.906341791153
1195,774.601343870163
1196,775.3043460845947
1197,776.0183482170105
1198,776.7233502864838
1199,777.4003522396088
1200,778.0413541793823
1201,778.6973562240601
1202,779.3513581752777
1203,780.016360282898
1204,780.693362236023
1205,781.388364315033
1206,782.0863664150238
1207,782.7823686599731
1208,783.446370601654
1209,784.0893726348877
1210,784.7513744831085
1211,785.444376707077
1212,786.1613788604736
1213,786.8903810977936
1214,787.5913832187653
1215,788.2803852558136
1216,788.9773874282837
1217,789.6803894042969
1218,790.3963916301727
1219,791.1133937835693
1220,791.8203959465027
1221,792.5313980579376
1222,793.2484002113342
1223,793.969402551651
1224,794.6904046535492
1225,795.4054067134857
1226,796.1274089813232
1227,796.8584113121033
1228,797.5984134674072
1229,798.3314156532288
1230,799.054417848587
1231,799.7854201793671
1232,800.5244224071503
1233,801.2454245090485
1234,801.9734265804291
1235,802.7144289016724
1236,803.4554312229156
1237,804.1924333572388
1238,804.9284355640411
1239,805.6814379692078
1240,806.4464402198792
1241,807.2114424705505
1242,807.9454448223114
1243,808.673446893692
1244,809.3984491825104
1245,810.1324512958527
1246,810.8624534606934
1247,811.5954558849335
1248,812.3294579982758
1249,813.0804603099823
1250,813.8504626750946
1251,814.5994648933411
1252,815.3594672679901
1253,816.1234695911407
1254,816.8974719047546
1255,817.6484742164612
1256,818.3804762363434
1257,819.1164784431458
1258,819.8604807853699
1259,820.5954830646515
1260,821.3134851455688
1261,822.0344874858856
1262,822.7644896507263
1263,823.5084917545319
1264,824.2554941177368
1265,824.9914963245392
1266,825.734498500824
1267,826.5075008869171
1268,827.2865033149719
1269,828.0535056591034
1270,828.7945077419281
1271,829.512510061264
1272,830.2225122451782
1273,830.9355142116547
1274,831.6525166034698
1275,832.3575186729431
1276,833.0795207023621
1277,833.8325231075287
1278,834.5875253677368
1279,835.3105275630951
1280,836.0125296115875
1281,836.7185318470001
1282,837.434534072876
1283,838.1645362377167
1284,838.8885383605957
1285,839.6015405654907
1286,840.335542678833
1287,841.0785450935364
1288,841.8295471668243
1289,842.553549528122
1290,843.2685515880585
1291,843.9915537834167
1292,844.7165560722351
1293,845.4375581741333
1294,846.1525604724884
1295,846.8865625858307
1296,847.6335649490356
1297,848.380567073822
1298,849.1145694255829
1299,849.8545715808868
1300,850.6065738201141
1301,851.3365759849548
1302,852.0315780639648
1303,852.6845800876617
1304,853.3105819225311
1305,853.9405839443207
1306,854.5615859031677
1307,855.2105877399445
1308,855.8735897541046
1309,856.5445919036865
1310,857.1885938644409
1311,857.8195955753326
1312,858.4585976600647
1313,859.1045994758606
1314,859.7636015415192
1315,860.4096035957336
1316,861.0796055793762
1317,861.7736077308655
1318,862.5146098136902
1319,863.2796120643616
1320,864.0546145439148
1321,864.8106167316437
1322,865.5446190834045
1323,866.2586212158203
1324,866.9666233062744
1325,867.6706254482269
1326,868.3846275806427
1327,869.0996298789978
1328,869.8106319904327
1329,870.5306341648102
1330,871.2586362361908
1331,871.9966385364532
1332,872.7216408252716
1333,873.4296429157257
1334,874.1306450366974
1335,874.8416471481323
1336,875.5726494789124
1337,876.3146517276764
1338,877.0546538829803
1339,877.7806560993195
1340,878.5146582126617
1341,879.2446603775024
1342,879.9746627807617
1343,880.7046649456024
1344,881.4076669216156
1345,882.1046690940857
1346,882.809671163559
1347,883.5346734523773
1348,884.2606756687164
1349,884.9796779155731
1350,885.6936800479889
1351,886.4136822223663
1352,887.1346843242645
1353,887.8586864471436
1354,888.5756888389587
1355,889.2866909503937
1356,889.986692905426
1357,890.6746950149536
1358,891.3516972064972
1359,892.0386991500854
1360,892.7457013130188
1361,893.4807035923004
1362,894.2237057685852
1363,894.9547080993652
1364,895.6627101898193
1365,896.3797123432159
1366,897.092714548111
1367,897.7977166175842
1368,898.4847187995911
1369,899.1707208156586
1370,899.8587229251862
1371,900.556725025177
1372,901.2617270946503
1373,901.9897294044495
1374,902.7197315692902
1375,903.4497337341309
1376,904.1717360019684
1377,904.8787381649017
1378,905.5617401599884
1379,906.2197420597076
1380,906.879744052887
1381,907.558746099472
1382,908.2677483558655
1383,909.0067505836487
1384,909.7517528533936
1385,910.4817550182343
1386,911.2007572650909
1387,911.9207594394684
1388,912.6457614898682
1389,913.3937637805939
1390,914.1387660503387
1391,914.8917684555054
1392,915.6597707271576
1393,916.4257729053497
1394,917.1777753829956
1395,917.9177775382996
1396,918.6517796516418
1397,919.3997819423676
1398,920.1437842845917
1399,920.8687863349915
1400,921.608788728714
1401,922.3527908325195
1402,923.1067931652069
1403,923.8407955169678
1404,924.556797504425
1405,925.2797996997833
1406,925.9998018741608
1407,926.7208042144775
1408,927.4308063983917
1409,928.1438083648682
1410,928.875810623169
1411,929.5758128166199
1412,930.267814874649
1413,930.9588170051575
1414,931.6218190193176
1415,932.2788209915161
1416,932.9278228282928
1417,933.5658247470856
1418,934.2068266868591
1419,934.8578288555145
1420,935.5218307971954
1421,936.2018327713013
1422,936.8958349227905
1423,937.599837064743
1424,938.3158392906189
1425,939.0338413715363
1426,939.7538435459137
1427,940.4688458442688
1428,941.1808478832245
1429,941.8788499832153
1430,942.5748522281647
1431,943.2678542137146
1432,943.974856376648
1433,944.7108585834503
1434,945.4718608856201
1435,946.2338631153107
1436,946.9848654270172
1437,947.7338676452637
1438,948.4838700294495
1439,949.2208721637726
1440,949.9468743801117
1441,950.6678767204285
1442,951.3848788738251
1443,952.0828809738159
1444,952.7988829612732
1445,953.5298852920532
1446,954.2868876457214
1447,955.0378897190094
1448,955.7638919353485
1449,956.4828941822052
1450,957.2028963565826
1451,957.9248986244202
1452,958.6429007053375
1453,959.3569028377533
1454,960.0879051685333
1455,960.8209073543549
1456,961.5429096221924
1457,962.2769117355347
1458,963.0329139232635
1459,963.7809162139893
1460,964.5139183998108
1461,965.2329206466675
1462,965.9599227905273
1463,966.678925037384
1464,967.3659272193909
1465,968.0259292125702
1466,968.6689310073853
1467,969.3189330101013
1468,969.9899351596832
1469,970.6919372081757
1470,971.4079394340515
1471,972.1349415779114
1472,972.8529436588287
1473,973.5529458522797
1474,974.2439479827881
1475,974.9479501247406
1476,975.6419522762299
1477,976.3419542312622
1478,977.0379564762115
1479,977.7309584617615
1480,978.416960477829
1481,979.1159627437592
1482,979.8389649391174
1483,980.5659670829773
1484,981.2859692573547
1485,981.9979712963104
1486,982.6969735622406
1487,983.3829755783081
1488,984.0289776325226
1489,984.6449794769287
1490,985.2429811954498
1491,985.8349831104279
1492,986.4209847450256
1493,987.0239865779877
1494,987.6429884433746
1495,988.2489902973175
1496,988.8379921913147
1497,989.45099401474
1498,990.0949959754944
1499,990.748997926712
1500,991.4039998054504
1501,992.0490019321442
1502,992.6740036010742
1503,993.2870056629181
1504,993.8820073604584
1505,994.4610090255737
1506,995.0310108661652
1507,995.6020126342773
1508,996.1680142879486
1509,996.73601603508
1510,997.2950177192688
1511,997.85901927948
1512,998.4210209846497
1513,998.978022813797
1514,999.5300245285034
1515,1000.0760262012482
1516,1000.617027759552
1517,1001.1520292758942
1518,1001.6890308856964
1519,1002.2310326099396
1520,1002.7770342826843
1521,1003.3180358409882
1522,1003.8600375652313
1523,1004.4050393104553
1524,1004.9650409221649
1525,1005.5260426998138
1526,1006.0870442390442
1527,1006.6560459136963
1528,1007.26504778862
1529,1007.897049665451
1530,1008.552051782608
1531,1009.2070536613464
1532,1009.8440556526184
1533,1010.4650576114655
1534,1011.0610592365265
1535,1011.6500611305237
1536,1012.23606300354
1537,1012.8290646076202
1538,1013.4150664806366
1539,1013.9910681247711
1540,1014.55006980896
1541,1015.1320717334747
1542,1015.7510735988617
1543,1016.3680753707886
1544,1016.9750771522522
1545,1017.5820791721344
1546,1018.1810808181763
1547,1018.7540826797485
1548,1019.3050842285156
1549,1019.8610858917236
1550,1020.4390876293182
1551,1021.0330893993378
1552,1021.6410913467407
1553,1022.2750933170319
1554,1022.9240951538086
1555,1023.5800971984863
1556,1024.1990990638733
1557,1024.7991008758545
1558,1025.3971028327942
1559,1026.001104593277
1560,1026.6161065101624
1561,1027.2221081256866
1562,1027.8121099472046
1563,1028.380111694336
1564,1028.965113401413
1565,1029.5601153373718
1566,1030.1631171703339
1567,1030.7891190052032
1568,1031.461121082306
1569,1032.1861233711243
1570,1032.9091255664825
1571,1033.6171276569366
1572,1034.3071296215057
1573,1034.9941318035126
1574,1035.6751337051392
1575,1036.3391358852386
1576,1037.0021378993988
1577,1037.6881399154663
1578,1038.3881421089172
1579,1039.1221442222595
1580,1039.8641464710236
1581,1040.600148677826
1582,1041.3111507892609
1583,1042.0191531181335
1584,1042.7181551456451
1585,1043.414157152176
1586,1044.111159324646
1587,1044.806161403656
1588,1045.5001635551453
1589,1046.2221658229828
1590,1046.97416806221
1591,1047.7401702404022
1592,1048.488172531128
1593,1049.2271747589111
1594,1049.9541771411896
1595,1050.6591792106628
1596,1051.3811812400818
1597,1052.107183456421
1598,1052.8451857566833
1599,1053.5821878910065
1600,1054.3121902942657
1601,1055.0391924381256
1602,1055.7641944885254
1603,1056.4781968593597
1604,1057.1871988773346
1605,1057.8862009048462
1606,1058.5692031383514
1607,1059.2642052173615
1608,1059.981207370758
1609,1060.710209608078
1610,1061.4142117500305
1611,1062.0932137966156
1612,1062.7692158222198
1613,1063.443217754364
1614,1064.1022198200226
1615,1064.7792217731476
1616,1065.4872241020203
1617,1066.230226278305
1618,1066.9632284641266
1619,1067.7022306919098
1620,1068.4312329292297
1621,1069.1622352600098
1622,1069.8642373085022
1623,1070.5552394390106
1624,1071.2072412967682
1625,1071.8202431201935
1626,1072.4312450885773
1627,1073.0632469654083
1628,1073.7182488441467
1629,1074.3902509212494
1630,1075.0722529888153
1631,1075.7722551822662
1632,1076.4852573871613
1633,1077.1872594356537
1634,1077.8992614746094
1635,1078.6172637939453
1636,1079.363265991211
1637,1080.0642681121826
1638,1080.7482702732086
1639,1081.4492723941803
1640,1082.166274547577
1641,1082.8882765769958
1642,1083.6152789592743
1643,1084.3602812290192
1644,1085.1172833442688
1645,1085.8852858543396
1646,1086.6262879371643
1647,1087.356290102005
1648,1088.0652923583984
1649,1088.7592945098877
1650,1089.448296546936
1651,1090.1502985954285
1652,1090.8873009681702
1653,1091.6603031158447
1654,1092.4023053646088
1655,1093.1273076534271
1656,1093.8573098182678
1657,1094.5733120441437
1658,1095.2833142280579
1659,1096.0033164024353
1660,1096.7253184318542
1661,1097.4523208141327
1662,1098.1933228969574
1663,1098.9063251018524
1664,1099.6293272972107
1665,1100.3553295135498
1666,1101.0773317813873
1667,1101.8003339767456
1668,1102.5303361415863
1669,1103.273338317871
1670,1104.0123405456543
1671,1104.7563428878784
1672,1105.5123450756073
1673,1106.2753474712372
1674,1107.0043497085571
1675,1107.7343518733978
1676,1108.475354194641
1677,1109.23135638237
1678,1110.0013587474823
1679,1110.7843611240387
1680,1111.5483634471893
1681,1112.296365737915
1682,1113.04136800766
1683,1113.8053703308105
1684,1114.5713725090027
1685,1115.3163747787476
1686,1116.0593769550323
1687,1116.8013792037964
1688,1117.534381389618
1689,1118.283383846283
1690,1119.020385980606
1691,1119.765388250351
1692,1120.512390613556
1693,1121.2583928108215
1694,1121.9883949756622
1695,1122.6823971271515
1696,1123.37339925766
1697,1124.0874013900757
1698,1124.8254034519196
1699,1125.581405878067
1700,1126.321408033371
1701,1127.0284101963043
1702,1127.6774122714996
1703,1128.3004140853882
1704,1128.9314160346985
1705,1129.6004180908203
1706,1130.294420003891
1707,1130.9934222698212
1708,1131.6594243049622
1709,1132.3034262657166
1710,1132.9614281654358
1711,1133.6324303150177
1712,1134.3004322052002
1713,1134.964434146881
1714,1135.59343624115
1715,1136.2014379501343
1716,1136.8204398155212
1717,1137.4554417133331
1718,1138.1224439144135
1719,1138.8064458370209
1720,1139.4824478626251
1721,1140.187450170517
1722,1140.911452293396
1723,1141.6454544067383
1724,1142.3554565906525
1725,1143.0064585208893
1726,1143.6364605426788
1727,1144.2734625339508
1728,1144.9144642353058
1729,1145.5724663734436
1730,1146.2134683132172
1731,1146.8234701156616
1732,1147.4244718551636
1733,1148.0224738121033
1734,1148.629475593567
1735,1149.2514774799347
1736,1149.9034793376923
1737,1150.5744814872742
1738,1151.2514834403992
1739,1151.9474856853485
1740,1152.649487733841
1741,1153.3514897823334
1742,1154.039491891861
1743,1154.7244939804077
1744,1155.3974959850311
1745,1156.066498041153
1746,1156.7395000457764
1747,1157.4155020713806
1748,1158.0865042209625
1749,1158.7605061531067
1750,1159.4305083751678
1751,1160.0855102539062
1752,1160.7375123500824
1753,1161.418514251709
1754,1162.136516571045
1755,1162.871518611908
1756,1163.5985209941864
1757,1164.292522907257
1758,1164.9625251293182
1759,1165.6255269050598
1760,1166.2825291156769
1761,1166.9395310878754
1762,1167.6005330085754
1763,1168.2695350646973
1764,1168.952537059784
1765,1169.6455392837524
1766,1170.3335411548615
1767,1171.02654337883
1768,1171.7095453739166
1769,1172.4065475463867
1770,1173.1075496673584
1771,1173.8105518817902
1772,1174.50155377388
1773,1175.1705558300018
1774,1175.8315579891205
1775,1176.488559961319
1776,1177.1575620174408
1777,1177.8235638141632
1778,1178.492565870285
1779,1179.1615679264069
1780,1179.8235700130463
1781,1180.488571882248
1782,1181.143573999405
1783,1181.8315761089325
1784,1182.5295782089233
1785,1183.2425804138184
1786,1183.9495825767517
1787,1184.6615846157074
1788,1185.344586610794
1789,1185.9665884971619
1790,1186.555590391159
1791,1187.143592119217
1792,1187.7365939617157
1793,1188.3215956687927
1794,1188.9125974178314
1795,1189.513599395752
1796,1190.1266012191772
1797,1190.7346029281616
1798,1191.3486049175262
1799,1191.9616067409515
1800,1192.573608636856
1801,1193.179610490799
1802,1193.793612241745
1803,1194.4096140861511
1804,1195.0376160144806
1805,1195.6696178913116
1806,1196.286619901657
1807,1196.8996217250824
1808,1197.5156235694885
1809,1198.154625415802
1810,1198.815627336502
1811,1199.4956295490265
1812,1200.2036316394806
1813,1200.9066338539124
1814,1201.618635892868
1815,1202.349638223648
1816,1203.0596404075623
1817,1203.7456424236298
1818,1204.379644393921
1819,1204.9946460723877
1820,1205.6106479167938
1821,1206.2356498241425
1822,1206.8736517429352
1823,1207.5076537132263
1824,1208.1356556415558
1825,1208.7786576747894
1826,1209.4526596069336
1827,1210.1606616973877
1828,1210.8706638813019
1829,1211.5736660957336
1830,1212.267668247223
1831,1212.9476702213287
1832,1213.6116721630096
1833,1214.2696743011475
1834,1214.9256761074066
1835,1215.5886781215668
1836,1216.2416801452637
1837,1216.935682296753
1838,1217.6756844520569
1839,1218.4386868476868
1840,1219.2026891708374
1841,1219.948691368103
1842,1220.6466934680939
1843,1221.314695596695
1844,1221.9506974220276
1845,1222.5936994552612
1846,1223.242701292038
1847,1223.8987033367157
1848,1224.57470536232
1849,1225.2517075538635
1850,1225.9447095394135
1851,1226.6287117004395
1852,1227.2997136116028
1853,1227.9787156581879
1854,1228.6587176322937
1855,1229.3357198238373
1856,1230.0167219638824
1857,1230.6887238025665
1858,1231.3487257957458
1859,1232.018728017807
1860,1232.6857299804688
1861,1233.361732006073
1862,1234.040734052658
1863,1234.7077360153198
1864,1235.3747379779816
1865,1236.036740064621
1866,1236.6967420578003
1867,1237.3547439575195
1868,1238.0077459812164
1869,1238.679748058319
1870,1239.3627500534058
1871,1240.0487523078918
1872,1240.7287542819977
1873,1241.4037563800812
1874,1242.0607583522797
1875,1242.715760231018
1876,1243.370762348175
1877,1244.0287642478943
1878,1244.6967663764954
1879,1245.3827683925629
1880,1246.0737705230713
1881,1246.7637724876404
1882,1247.4497745037079
1883,1248.1347765922546
1884,1248.810778617859
1885,1249.4837808609009
1886,1250.144782781601
1887,1250.8147847652435
1888,1251.473786830902
1889,1252.142788887024
1890,1252.819790840149
1891,1253.500792980194
1892,1254.1797950267792
1893,1254.8557970523834
1894,1255.5397989749908
1895,1256.2168011665344
1896,1256.8978033065796
1897,1257.5898053646088
1898,1258.281807422638
1899,1258.978809595108
1900,1259.6788115501404
1901,1260.3618137836456
1902,1261.0418157577515
1903,1261.7068176269531
1904,1262.382819890976
1905,1263.070821762085
1906,1263.74982380867
1907,1264.4408259391785
1908,1265.1298282146454
1909,1265.7978301048279
1910,1266.4538321495056
1911,1267.1008341312408
1912,1267.7498359680176
1913,1268.406837940216
1914,1269.072839975357
1915,1269.743842124939
1916,1270.4468441009521
1917,1271.1668462753296
1918,1271.9018485546112
1919,1272.631850719452
1920,1273.346853017807
1921,1274.0538551807404
1922,1274.7358572483063
1923,1275.413859128952
1924,1276.0898611545563
1925,1276.7608633041382
1926,1277.4438652992249
1927,1278.1618676185608
1928,1278.880869626999
1929,1279.5838718414307
1930,1280.2828738689423
1931,1280.9918761253357
1932,1281.66787815094
1933,1282.2948801517487
1934,1282.900881767273
1935,1283.5158836841583
1936,1284.142885684967
1937,1284.7918875217438
1938,1285.4178895950317
1939,1286.0268912315369
1940,1286.6708931922913
1941,1287.355895280838
1942,1288.0628974437714
1943,1288.8298997879028
1944,1289.5719020366669
1945,1290.286904335022
1946,1290.9719061851501
1947,1291.6349081993103
1948,1292.2969102859497
1949,1292.9799122810364
1950,1293.6649143695831
1951,1294.3639166355133
1952,1295.0679187774658
1953,1295.754920721054
1954,1296.4599227905273
1955,1297.1669249534607
1956,1297.8569271564484
1957,1298.5249290466309
1958,1299.2429313659668
1959,1299.9669334888458
1960,1300.6939356327057
1961,1301.4219379425049
1962,1302.145940065384
1963,1302.8889422416687
1964,1303.6399445533752
1965,1304.3979468345642
1966,1305.1549491882324
1967,1305.8919513225555
1968,1306.6199536323547
1969,1307.347955942154
1970,1308.0799579620361
1971,1308.8049602508545
1972,1309.5279624462128
1973,1310.2449645996094
1974,1310.961966753006
1975,1311.6679689884186
1976,1312.3449709415436
1977,1313.0149729251862
1978,1313.6609749794006
1979,1314.2909767627716
1980,1314.9179787635803
1981,1315.5589807033539
1982,1316.2159826755524
1983,1316.86798453331
1984,1317.4919865131378
1985,1318.1159884929657
1986,1318.7369902133942
1987,1319.3579921722412
1988,1319.9839940071106
1989,1320.6269960403442
1990,1321.2729980945587
1991,1321.9240000247955
1992,1322.5830018520355
1993,1323.22700381279
1994,1323.8720059394836
1995,1324.5280077457428
1996,1325.2020099163055
1997,1325.8900120258331
1998,1326.599014043808
1999,1327.328016281128
2000,1328.070018529892
2001,1328.799020767212
2002,1329.4990229606628
2003,1330.191025018692
2004,1330.857027053833
2005,1331.5250289440155
2006,1332.155030965805
2007,1332.7950327396393
2008,1333.435034751892
2009,1334.0840368270874
2010,1334.7430386543274
2011,1335.4100408554077
2012,1336.0800428390503
2013,1336.7430448532104
2014,1337.4070467948914
2015,1338.0690488815308
2016,1338.7370507717133
2017,1339.4180529117584
2018,1340.0950548648834
2019,1340.7610569000244
2020,1341.4290590286255
2021,1342.102061033249
2022,1342.8030631542206
2023,1343.525065422058
2024,1344.2420675754547
2025,1344.947069644928
2026,1345.5930714607239
2027,1346.2130734920502
2028,1346.830075263977
2029,1347.4390771389008
2030,1348.0510790348053
2031,1348.6660809516907
2032,1349.2900826931
2033,1349.9100847244263
2034,1350.5340864658356
2035,1351.1610884666443
2036,1351.8020904064178
2037,1352.460092306137
2038,1353.1340944766998
2039,1353.8170964717865
2040,1354.5000984668732
2041,1355.1631004810333
2042,1355.8121025562286
2043,1356.4231042861938
2044,1357.0381062030792
2045,1357.6751081943512
2046,1358.3091099262238
2047,1358.9361119270325
2048,1359.550113916397
2049,1360.1641156673431
2050,1360.7741174697876
2051,1361.4081194400787
2052,1362.0651214122772
2053,1362.7671234607697
2054,1363.4861257076263
2055,1364.2021279335022
2056,1364.8961300849915
2057,1365.5871319770813
2058,1366.2711341381073
2059,1366.9211361408234
2060,1367.5521380901337
2061,1368.189139842987
2062,1368.8391418457031
2063,1369.487143754959
2064,1370.109145641327
2065,1370.7451477050781
2066,1371.3841495513916
2067,1372.0161514282227
2068,1372.6411533355713
2069,1373.2601552009583
2070,1373.869157075882
2071,1374.485158920288
2072,1375.12216091156
2073,1375.775162935257
2074,1376.4581649303436
2075,1377.1481671333313
2076,1377.8341691493988
2077,1378.5221712589264
2078,1379.2121732234955
2079,1379.9111754894257
2080,1380.6081774234772
2081,1381.2961795330048
2082,1381.97718167305
2083,1382.6481835842133
2084,1383.322185754776
2085,1383.9931876659393
2086,1384.6821899414062
2087,1385.3791918754578
2088,1386.0971941947937
2089,1386.797196149826
2090,1387.4911983013153
2091,1388.174200296402
2092,1388.8532025814056
2093,1389.5162043571472
2094,1390.1822063922882
2095,1390.8652086257935
2096,1391.5492105484009
2097,1392.2452127933502
2098,1392.9082148075104
2099,1393.562216758728
2100,1394.2302186489105
2101,1394.8932206630707
2102,1395.540222644806
2103,1396.1832246780396
2104,1396.8462266921997
2105,1397.535228729248
2106,1398.2392308712006
2107,1398.9632329940796
2108,1399.6982352733612
2109,1400.4352374076843
2110,1401.1582396030426
2111,1401.865241765976
2112,1402.562243938446
2113,1403.2382459640503
2114,1403.8822479248047
2115,1404.5192499160767
2116,1405.1682517528534
2117,1405.8332538604736
2118,1406.504255771637
2119,1407.1532578468323
2120,1407.7972598075867
2121,1408.4462616443634
2122,1409.0932636260986
2123,1409.742265701294
2124,1410.403267621994
2125,1411.0732696056366
2126,1411.740271806717
2127,1412.3752737045288
2128,1412.9792754650116
2129,1413.5672771930695
2130,1414.163279056549
2131,1414.8032810688019
2132,1415.4712829589844
2133,1416.177285194397
2134,1416.870287179947
2135,1417.562289237976
2136,1418.2632913589478
2137,1418.9762935638428
2138,1419.7032957077026
2139,1420.430298089981
2140,1421.1643002033234
2141,1421.9033024311066
2142,1422.623304605484
2143,1423.336306810379
2144,1424.0243089199066
2145,1424.7243111133575
2146,1425.421313047409
2147,1426.0883152484894
2148,1426.726317167282
2149,1427.3753190040588
2150,1428.0133209228516
2151,1428.6273229122162
2152,1429.2303247451782
2153,1429.8263263702393
2154,1430.4573283195496
2155,1431.1413304805756
2156,1431.8603324890137
2157,1432.585334777832
2158,1433.3103370666504
2159,1434.0023391246796
2160,1434.688341140747
2161,1435.3733432292938
2162,1436.0553452968597
2163,1436.747347354889
2164,1437.4613494873047
2165,1438.1903517246246
2166,1438.9273540973663
2167,1439.6893563270569
2168,1440.46035861969
2169,1441.202360868454
2170,1441.9273631572723
2171,1442.6613652706146
2172,1443.3673675060272
2173,1444.0463695526123
2174,1444.7123715877533
2175,1445.35937333107
2176,1445.996375322342
2177,1446.633377313614
2178,1447.3163793087006
2179,1448.0143814086914
2180,1448.7163836956024
2181,1449.4243857860565
2182,1450.1163878440857
2183,1450.7833898067474
2184,1451.4613919258118
2185,1452.1453940868378
2186,1452.8133959770203
2187,1453.4893980026245
2188,1454.1654000282288
2189,1454.8394021987915
2190,1455.5284042358398
2191,1456.2194063663483
2192,1456.9094083309174
2193,1457.61541056633
2194,1458.323412656784
2195,1459.0434148311615
2196,1459.7734169960022
2197,1460.5044193267822
2198,1461.2244215011597
2199,1461.9034235477448
2200,1462.5654253959656
2201,1463.2214274406433
2202,1463.8694293498993
2203,1464.4894313812256
2204,1465.0794332027435
2205,1465.6814348697662
2206,1466.2824368476868
2207,1466.9164385795593
2208,1467.5914406776428
2209,1468.285442829132
2210,1468.9864449501038
2211,1469.6854469776154
2212,1470.3674490451813
2213,1471.0444512367249
2214,1471.7144532203674
2215,1472.3924553394318
2216,1473.092457294464
2217,1473.8254594802856
2218,1474.5544617176056
2219,1475.279464006424
2220,1476.0104660987854
2221,1476.7374684810638
2222,1477.442470550537
2223,1478.122472524643
2224,1478.8004746437073
2225,1479.4644765853882
2226,1480.1194787025452
2227,1480.7774806022644
2228,1481.4404826164246
2229,1482.1064846515656
2230,1482.8014867305756
2231,1483.508488893509
2232,1484.2494912147522
2233,1484.9814932346344
2234,1485.700495481491
2235,1486.4234976768494
2236,1487.1304998397827
2237,1487.8325018882751
2238,1488.517503976822
2239,1489.201506137848
2240,1489.882508277893
2241,1490.570510149002
2242,1491.2745122909546
2243,1491.9805145263672
2244,1492.678516626358
2245,1493.3865187168121
2246,1494.1085209846497
2247,1494.813523054123
2248,1495.4985251426697
2249,1496.140527009964
2250,1496.7835290431976
2251,1497.4155309200287
2252,1498.0395328998566
2253,1498.6775348186493
2254,1499.3355367183685
2255,1500.0235388278961
2256,1500.7305409908295
2257,1501.439543247223
2258,1502.1645452976227
2259,1502.876547574997
2260,1503.5495495796204
2261,1504.1645512580872
2262,1504.7795531749725
2263,1505.4045550823212
2264,1506.068557024002
2265,1506.7255592346191
2266,1507.3825612068176
2267,1508.0585632324219
2268,1508.7565653324127
2269,1509.4865674972534
2270,1510.221569776535
2271,1510.963572025299
2272,1511.6775741577148
2273,1512.3795762062073
2274,1513.0685782432556
2275,1513.7295804023743
2276,1514.3765823841095
2277,1515.033584356308
2278,1515.7005863189697
2279,1516.371588230133
2280,1517.0495903491974
2281,1517.7145924568176
2282,1518.387594461441
2283,1519.0845966339111
2284,1519.782598733902
2285,1520.4636006355286
2286,1521.1186027526855
2287,1521.7636046409607
2288,1522.4046065807343
2289,1523.0356085300446
2290,1523.6556103229523
2291,1524.2506122589111
2292,1524.825613975525
2293,1525.4096157550812
2294,1526.0196175575256
2295,1526.6286194324493
2296,1527.2546212673187
2297,1527.8906230926514
2298,1528.5476250648499
2299,1529.2246272563934
2300,1529.9046292304993
2301,1530.5836312770844
2302,1531.2356333732605
2303,1531.8716351985931
2304,1532.5026371479034
2305,1533.1356389522552
2306,1533.7996411323547
2307,1534.4746429920197
2308,1535.1556451320648
2309,1535.8426473140717
2310,1536.5406494140625
2311,1537.2436513900757
2312,1537.950653553009
2313,1538.6306557655334
2314,1539.300657749176
2315,1539.9556596279144
2316,1540.6046617031097
2317,1541.2636635303497
2318,1541.9386656284332
2319,1542.6386678218842
2320,1543.336669921875
2321,1544.013671875
2322,1544.697674036026
2323,1545.3866760730743
2324,1546.0706782341003
2325,1546.7036800384521
2326,1547.3326818943024
2327,1547.970683813095
2328,1548.6306858062744
2329,1549.3046879768372
2330,1549.957690000534
2331,1550.6156919002533
2332,1551.3006939888
2333,1551.9946961402893
2334,1552.6926982402802
2335,1553.3937003612518
2336,1554.0927023887634
2337,1554.7927045822144
2338,1555.4887065887451
2339,1556.1817088127136
2340,1556.8967108726501
2341,1557.6137130260468
2342,1558.3307151794434
2343,1559.0447175502777
2344,1559.7647197246552
2345,1560.4747216701508
2346,1561.1777238845825
2347,1561.879725933075
2348,1562.5837280750275
2349,1563.2857303619385
2350,1564.0087325572968
2351,1564.7167346477509
2352,1565.419736623764
2353,1566.1337389945984
2354,1566.8447411060333
2355,1567.5547432899475
2356,1568.269745349884
2357,1568.9837474822998
2358,1569.709749698639
2359,1570.4097518920898
2360,1571.1097538471222
2361,1571.8027560710907
2362,1572.4947581291199
2363,1573.215760231018
2364,1573.9677624702454
2365,1574.7297649383545
2366,1575.4827671051025
2367,1576.2007694244385
2368,1576.9187715053558
2369,1577.6247737407684
2370,1578.3207757472992
2371,1578.9907777309418
2372,1579.6497797966003
2373,1580.3147819042206
2374,1580.9767837524414
2375,1581.6497857570648
2376,1582.3337879180908
2377,1583.0297899246216
2378,1583.7457921504974
2379,1584.4797945022583
2380,1585.204796552658
2381,1585.8807985782623
2382,1586.5128004550934
2383,1587.126802444458
2384,1587.7498042583466
2385,1588.3818061351776
2386,1589.0338082313538
2387,1589.7088103294373
2388,1590.3978123664856
2389,1591.083814382553
2390,1591.7888164520264
2391,1592.4888186454773
2392,1593.1708207130432
2393,1593.8358228206635
2394,1594.5138247013092
2395,1595.200826883316
2396,1595.882828950882
2397,1596.5638308525085
2398,1597.2598330974579
2399,1597.9608352184296
2400,1598.664837360382
2401,1599.388839483261
2402,1600.0968415737152
2403,1600.7808437347412
2404,1601.4348456859589
2405,1602.086847782135
2406,1602.7528495788574
2407,1603.42485165596
2408,1604.1018538475037
2409,1604.7668557167053
2410,1605.4318578243256
2411,1606.0928597450256
2412,1606.7618618011475
2413,1607.4388637542725
2414,1608.142865896225
2415,1608.8628680706024
2416,1609.6068704128265
2417,1610.3708727359772
2418,1611.1278750896454
2419,1611.8698773384094
2420,1612.5838794708252
2421,1613.2868814468384
2422,1613.9808835983276
2423,1614.6478855609894
2424,1615.2818875312805
2425,1615.9128894805908
2426,1616.541891336441
2427,1617.1538932323456
2428,1617.7608950138092
2429,1618.3798968791962
2430,1619.0058989524841
2431,1619.6379008293152
2432,1620.2879028320312
2433,1620.9559047222137
2434,1621.6389067173004
2435,1622.339908838272
2436,1623.0699112415314
2437,1623.7729132175446
2438,1624.461915254593
2439,1625.1569175720215
2440,1625.842919588089
2441,1626.5339217185974
2442,1627.2099237442017
2443,1627.8689255714417
2444,1628.5189275741577
2445,1629.1699295043945
2446,1629.82093167305
2447,1630.4489336013794
2448,1631.0549352169037
2449,1631.6449370384216
2450,1632.2299389839172
2451,1632.8229405879974
2452,1633.434942483902
2453,1634.055944442749
2454,1634.6999464035034
2455,1635.3349483013153
2456,1635.9649500846863
2457,1636.5889520645142
2458,1637.2089538574219
2459,1637.8379559516907
2460,1638.492957830429
2461,1639.1779599189758
2462,1639.945962190628
2463,1640.692964553833
2464,1641.398966550827
2465,1642.0969686508179
2466,1642.7749707698822
2467,1643.4209728240967
2468,1644.0359745025635
2469,1644.6379764080048
2470,1645.2319781780243
2471,1645.8189799785614
2472,1646.4059817790985
2473,1646.9739835262299
2474,1647.5289852619171
2475,1648.0959868431091
2476,1648.688988685608
2477,1649.302990436554
2478,1649.9379925727844
2479,1650.5819942951202
2480,1651.2349963188171
2481,1651.8889982700348
2482,1652.5180003643036
2483,1653.1230020523071
2484,1653.7230038642883
2485,1654.3240058422089
2486,1654.9540076255798
2487,1655.5870096683502
2488,1656.2280113697052
2489,1656.8740134239197
2490,1657.5220153331757
2491,1658.1730172634125
2492,1658.8260192871094
2493,1659.482021331787
2494,1660.1450233459473
2495,1660.8270254135132
2496,1661.536027431488
2497,1662.2660298347473
2498,1662.9990320205688
2499,1663.7220342159271
2500,1664.3990361690521
2501,1665.034038066864
2502,1665.6540400981903
2503,1666.2820420265198
2504,1666.91104388237
2505,1667.5450456142426
2506,1668.178047657013
2507,1668.8220496177673
2508,1669.4790515899658
2509,1670.15305352211
2510,1670.8590557575226
2511,1671.566057920456
2512,1672.2510600090027
2513,1672.9180619716644
2514,1673.5840640068054
2515,1674.2470660209656
2516,1674.9080679416656
2517,1675.58406996727
2518,1676.2920722961426
2519,1677.0310745239258
2520,1677.7750766277313
2521,1678.5140788555145
2522,1679.2320811748505
2523,1679.9420833587646
2524,1680.6400854587555
2525,1681.3180873394012
2526,1681.9750893115997
2527,1682.6270914077759
2528,1683.2940933704376
2529,1683.9890954494476
2530,1684.7220976352692
2531,1685.4690999984741
2532,1686.2261023521423
2533,1686.9781045913696
2534,1687.732106924057
2535,1688.483108997345
2536,1689.2241113185883
2537,1689.9411134719849
2538,1690.6571156978607
2539,1691.3761179447174
2540,1692.106120109558
2541,1692.8241221904755
2542,1693.5481243133545
2543,1694.283126592636
2544,1695.0201289653778
2545,1695.6971309185028
2546,1696.3641328811646
2547,1697.0621349811554
2548,1697.7881371974945
2549,1698.5421395301819
2550,1699.2761416435242
2551,1699.9951438903809
2552,1700.6881461143494
2553,1701.353147983551
2554,1702.0021500587463
2555,1702.6581518650055
2556,1703.349153995514
2557,1704.0601561069489
2558,1704.7971584796906
2559,1705.5291607379913
2560,1706.270162820816
2561,1707.0201652050018
2562,1707.77516746521
2563,1708.4971697330475
2564,1709.1791718006134
2565,1709.8511736392975
2566,1710.5181758403778
2567,1711.1881778240204
2568,1711.889179944992
2569,1712.6141819953918
2570,1713.3571844100952
2571,1714.0931866168976
2572,1714.8031888008118
2573,1715.5161907672882
2574,1716.2261929512024
2575,1716.9171950817108
2576,1717.6001970767975
2577,1718.2831993103027
2578,1718.970201253891
2579,1719.649203300476
2580,1720.331205368042
2581,1721.015207529068
2582,1721.715209722519
2583,1722.405211687088
2584,1723.0952138900757
2585,1723.7432157993317
2586,1724.3682177066803
2587,1724.9892196655273
2588,1725.6152215003967
2589,1726.2402234077454
2590,1726.8802251815796
2591,1727.5302271842957
2592,1728.192229270935
2593,1728.86923122406
2594,1729.5682334899902
2595,1730.3002355098724
2596,1731.0342378616333
2597,1731.7632400989532
2598,1732.4812421798706
2599,1733.188244342804
2600,1733.8792464733124
2601,1734.5762486457825
2602,1735.273250579834
2603,1735.9802527427673
2604,1736.7092549800873
2605,1737.4472572803497
2606,1738.1672594547272
2607,1738.8822615146637
2608,1739.594263792038
2609,1740.3012659549713
2610,1741.029268026352
2611,1741.760270357132
2612,1742.4942724704742
2613,1743.228274822235
2614,1743.9522769451141
2615,1744.6902792453766
2616,1745.4172813892365
2617,1746.1432836055756
2618,1746.8592858314514
2619,1747.5652878284454
2620,1748.2612900733948
2621,1748.9612920284271
2622,1749.664294242859
2623,1750.3712964057922
2624,1751.0412983894348
2625,1751.68630027771
2626,1752.3563022613525
2627,1753.0583045482635
2628,1753.7803065776825
2629,1754.4753086566925
2630,1755.1293108463287
2631,1755.7943127155304
2632,1756.4603147506714
2633,1757.1313169002533
2634,1757.8083188533783
2635,1758.4963209629059
2636,1759.1993231773376
2637,1759.9373252391815
2638,1760.7013275623322
2639,1761.4653298854828
2640,1762.1983320713043
2641,1762.935334444046
2642,1763.6723365783691
2643,1764.3823387622833
2644,1765.09934091568
2645,1765.8263430595398
2646,1766.5423452854156
2647,1767.2563474178314
2648,1767.9723496437073
2649,1768.6873517036438
2650,1769.4243540763855
2651,1770.144356250763
2652,1770.8413581848145
2653,1771.5443603992462
2654,1772.260362625122
2655,1772.9923648834229
2656,1773.7443671226501
2657,1774.4933693408966
2658,1775.2403717041016
2659,1775.966373682022
2660,1776.6563758850098
2661,1777.3493778705597
2662,1778.0783801078796
2663,1778.8383824825287
2664,1779.606384754181
2665,1780.3623871803284
2666,1781.119389295578
2667,1781.8693916797638
2668,1782.5933938026428
2669,1783.3263959884644
2670,1784.0723984241486
2671,1784.816400527954
2672,1785.5804028511047
2673,1786.3524053096771
2674,1787.1334075927734
2675,1787.9094099998474
2676,1788.6744122505188
2677,1789.4274144172668
2678,1790.1744167804718
2679,1790.9364190101624
2680,1791.6854214668274
2681,1792.4354236125946
2682,1793.1804258823395
2683,1793.94442820549
2684,1794.7084305286407
2685,1795.478432893753
2686,1796.2214350700378
2687,1796.9484372138977
2688,1797.6794395446777
2689,1798.4244418144226
2690,1799.1684439182281
2691,1799.9244463443756
2692,1800.6904485225677
2693,1801.4394509792328
2694,1802.1394529342651
2695,1802.7834548950195
2696,1803.4234569072723
2697,1804.0844588279724
2698,1804.7934610843658
2699,1805.5114631652832
2700,1806.1974651813507
2701,1806.8634672164917
2702,1807.5184693336487
2703,1808.1834712028503
2704,1808.831473350525
2705,1809.4864752292633
2706,1810.1454772949219
2707,1810.8184792995453
2708,1811.4954812526703
2709,1812.1764833927155
2710,1812.898485660553
2711,1813.6414878368378
2712,1814.3794901371002
2713,1815.0874922275543
2714,1815.7904942035675
2715,1816.5024964809418
2716,1817.2104985713959
2717,1817.9095005989075
2718,1818.61350274086
2719,1819.3275051116943
2720,1820.0485072135925
2721,1820.7805094718933
2722,1821.4985115528107
2723,1822.2015137672424
2724,1822.9065158367157
2725,1823.5995178222656
2726,1824.3145201206207
2727,1825.0405223369598
2728,1825.7575244903564
2729,1826.4715266227722
2730,1827.1955287456512
2731,1827.9335310459137
2732,1828.661533355713
2733,1829.3915355205536
2734,1830.1215376853943
2735,1830.8425397872925
2736,1831.5565419197083
2737,1832.25754404068
2738,1832.936546087265
2739,1833.5685482025146
2740,1834.2275500297546
2741,1834.8865520954132
2742,1835.5495541095734
2743,1836.214555978775
2744,1836.8685581684113
2745,1837.5255601406097
2746,1838.2055621147156
2747,1838.9045641422272
2748,1839.6145663261414
2749,1840.3255684375763
2750,1841.0415706634521
2751,1841.7545728683472
2752,1842.4355750083923
2753,1843.071576833725
2754,1843.690578699112
2755,1844.3375806808472
2756,1845.024582862854
2757,1845.746584892273
2758,1846.4795870780945
2759,1847.214589357376
2760,1847.9675917625427
2761,1848.699593782425
2762,1849.4065959453583
2763,1850.096598148346
2764,1850.791600227356
2765,1851.5006022453308
2766,1852.2056045532227
2767,1852.9306066036224
2768,1853.6766090393066
2769,1854.4316112995148
2770,1855.1766135692596
2771,1855.9026155471802
2772,1856.6096177101135
2773,1857.3046197891235
2774,1857.9906220436096
2775,1858.6706240177155
2776,1859.3676261901855
2777,1860.0686283111572
2778,1860.780630350113
2779,1861.4856326580048
2780,1862.1936347484589
2781,1862.9136369228363
2782,1863.643639087677
2783,1864.3776412010193
2784,1865.1066434383392
2785,1865.8316457271576
2786,1866.5546479225159
2787,1867.2696499824524
2788,1867.9806520938873
2789,1868.7116544246674
2790,1869.4566566944122
2791,1870.2296590805054
2792,1871.0196614265442
2793,1871.7956638336182
2794,1872.5716660022736
2795,1873.3136682510376
2796,1874.0286705493927
2797,1874.735672712326
2798,1875.4366748332977
2799,1876.1476769447327
2800,1876.8666791915894
2801,1877.6006813049316
2802,1878.3876836299896
2803,1879.18368601799
2804,1879.9576885700226
2805,1880.7296907901764
2806,1881.4976930618286
2807,1882.251695394516
2808,1883.0056977272034
2809,1883.75670003891
2810,1884.5167021751404
2811,1885.269704580307
2812,1886.0237069129944
2813,1886.7727091312408
2814,1887.5007112026215
2815,1888.2057135105133
2816,1888.917715549469
2817,1889.6337177753448
2818,1890.3407199382782
2819,1891.0667221546173
2820,1891.7977242469788
2821,1892.4957263469696
2822,1893.1997284889221
2823,1893.9027307033539
2824,1894.6347329616547
2825,1895.368735074997
2826,1896.1167373657227
2827,1896.8697395324707
2828,1897.628741979599
2829,1898.3717441558838
2830,1899.1197464466095
2831,1899.8637487888336
2832,1900.5547506809235
2833,1901.2357528209686
2834,1901.9457550048828
2835,1902.679757118225
2836,1903.4217593669891
2837,1904.1767616271973
2838,1904.9177639484406
2839,1905.619765996933
2840,1906.3157682418823
2841,1907.016770362854
2842,1907.7157723903656
2843,1908.372774362564
2844,1909.0227763652802
2845,1909.6557784080505
2846,1910.263780117035
2847,1910.9047820568085
2848,1911.5897841453552
2849,1912.2807862758636
2850,1912.9947884082794
2851,1913.727790594101
2852,1914.474792957306
2853,1915.2027950286865
2854,1915.9207973480225
2855,1916.6267993450165
2856,1917.3228015899658
2857,1918.0228035449982
2858,1918.7498059272766
2859,1919.4958081245422
2860,1920.2378103733063
2861,1920.9878125190735
2862,1921.7298147678375
2863,1922.4018168449402
2864,1923.0308187007904
2865,1923.6498205661774
2866,1924.2468223571777
2867,1924.8498241901398
2868,1925.4418261051178
2869,1926.0328278541565
2870,1926.6528296470642
2871,1927.3188316822052
2872,1927.9998338222504
2873,1928.6868360042572
2874,1929.3658380508423
2875,1930.061840057373
2876,1930.7498421669006
2877,1931.4558441638947
2878,1932.1868464946747
2879,1932.9468488693237
2880,1933.7158510684967
2881,1934.4778535366058
2882,1935.2268557548523
2883,1935.9578578472137
2884,1936.669860124588
2885,1937.3688621520996
2886,1938.0618643760681
2887,1938.7688663005829
2888,1939.4888684749603
2889,1940.2218708992004
2890,1940.9598729610443
2891,1941.7058753967285
2892,1942.4418776035309
2893,1943.1698796749115
2894,1943.8818819522858
2895,1944.5968840122223
2896,1945.3538863658905
2897,1946.1348886489868
2898,1946.918890953064
2899,1947.6858932971954
2900,1948.483895778656
2901,1949.2918982505798
2902,1950.0789005756378
2903,1950.8579030036926
2904,1951.6289052963257
2905,1952.3919076919556
2906,1953.174910068512
2907,1953.9689123630524
2908,1954.8169150352478
2909,1955.613917350769
2910,1956.416919708252
2911,1957.2209222316742
2912,1958.0279247760773
2913,1958.8509271144867
2914,1959.6199295520782
2915,1960.3909318447113
2916,1961.1719341278076
2917,1961.9719367027283
2918,1962.748939037323
2919,1963.4969413280487
2920,1964.2609436511993
2921,1965.0299458503723
2922,1965.7949481010437
2923,1966.5259504318237
2924,1967.2189524173737
2925,1967.9329545497894
2926,1968.6699569225311
2927,1969.4319591522217
2928,1970.1799614429474
2929,1970.930963754654
2930,1971.6509659290314
2931,1972.3559679985046
2932,1973.033970117569
2933,1973.6799719333649
2934,1974.313973903656
2935,1974.9809758663177
2936,1975.6919782161713
2937,1976.4429802894592
2938,1977.2239828109741
2939,1977.9859850406647
2940,1978.7289872169495
2941,1979.4469895362854
2942,1980.1289916038513
2943,1980.7609934806824
2944,1981.385995388031
2945,1982.015997171402
2946,1982.6689991950989
2947,1983.321001291275
2948,1983.9520030021667
2949,1984.6030051708221
2950,1985.2740070819855
2951,1985.9590091705322
2952,1986.6250112056732
2953,1987.31001329422
2954,1987.9980154037476
2955,1988.6940174102783
2956,1989.384019613266
2957,1990.0540215969086
2958,1990.6970236301422
2959,1991.3490254878998
2960,1992.0220274925232
2961,1992.7160296440125
2962,1993.4390318393707
2963,1994.178034067154
2964,1994.8890361785889
2965,1995.6080384254456
2966,1996.3160405158997
2967,1997.0190427303314
2968,1997.702044725418
2969,1998.3980467319489
2970,1999.1030490398407
2971,1999.8150510787964
2972,2000.537053346634
2973,2001.247055530548
2974,2001.9650576114655
2975,2002.7080597877502
2976,2003.4550621509552
2977,2004.1990644931793
2978,2004.9180665016174
2979,2005.6050686836243
2980,2006.2680706977844
2981,2006.933072566986
2982,2007.6180746555328
2983,2008.333076953888
2984,2009.0660791397095
2985,2009.7960813045502
2986,2010.5330834388733
2987,2011.2750856876373
2988,2012.0090880393982
2989,2012.7350902557373
2990,2013.416092157364
2991,2014.073094367981
2992,2014.7270963191986
2993,2015.3990981578827
2994,2016.0801002979279
2995,2016.7941024303436
2996,2017.5241045951843
2997,2018.256106853485
2998,2018.9311089515686
2999,2019.5841109752655
3000,2020.2271127700806
3001,2020.8401148319244
3002,2021.4481165409088
3003,2022.0651185512543
3004,2022.687120437622
3005,2023.3271222114563
3006,2023.9861242771149
3007,2024.6511261463165
3008,2025.3161282539368
3009,2025.974130153656
3010,2026.6341321468353
3011,2027.3021342754364
3012,2027.9971363544464
3013,2028.7001385688782
3014,2029.3861405849457
3015,2030.0691425800323
3016,2030.7351446151733
3017,2031.3821465969086
3018,2032.0361485481262
3019,2032.7071506977081
3020,2033.405152797699
3021,2034.1151549816132
3022,2034.811156988144
3023,2035.4931590557098
3024,2036.145161151886
3025,2036.7811629772186
3026,2037.427165031433
3027,2038.086166858673
3028,2038.784168958664
3029,2039.5001711845398
3030,2040.2071733474731
3031,2040.876175403595
3032,2041.4851772785187
3033,2042.093178987503
3034,2042.6871807575226
3035,2043.2791826725006
3036,2043.8881845474243
3037,2044.495186328888
3038,2045.10018825531
3039,2045.7081899642944
3040,2046.3131918907166
3041,2046.934193611145
3042,2047.5481956005096
3043,2048.1571974754333
3044,2048.7711992263794
3045,2049.3892011642456
3046,2050.017203092575
3047,2050.6512048244476
3048,2051.292206764221
3049,2051.9462089538574
3050,2052.6152107715607
3051,2053.298213005066
3052,2053.9872150421143
3053,2054.6552169322968
3054,2055.2922189235687
3055,2055.9222209453583
3056,2056.5532228946686
3057,2057.1962246894836
3058,2057.8442265987396
3059,2058.5052287578583
3060,2059.1682307720184
3061,2059.838232755661
3062,2060.533234834671
3063,2061.2352368831635
3064,2061.9402391910553
3065,2062.634241104126
3066,2063.3192431926727
3067,2063.987245321274
3068,2064.631247282028
3069,2065.2712490558624
3070,2065.9292511940002
3071,2066.6162531375885
3072,2067.330255508423
3073,2068.064257621765
3074,2068.794259786606
3075,2069.5212619304657
3076,2070.248264312744
3077,2070.9662663936615
3078,2071.656268596649
3079,2072.3452706336975
3080,2073.0112726688385
3081,2073.668274641037
3082,2074.298276424408
3083,2074.906278371811
3084,2075.525280237198
3085,2076.170282125473
3086,2076.834284067154
3087,2077.505286216736
3088,2078.17928814888
3089,2078.8462903499603
3090,2079.4992921352386
3091,2080.1442942619324
3092,2080.7912962436676
3093,2081.449298143387
3094,2082.1083002090454
3095,2082.760302066803
3096,2083.428304195404
3097,2084.10830616951
3098,2084.792308330536
3099,2085.4653103351593
3100,2086.1423122882843
3101,2086.8223145008087
3102,2087.512316465378
3103,2088.2053184509277
3104,2088.899320602417
3105,2089.609322786331
3106,2090.3373250961304
3107,2091.0733273029327
3108,2091.796329498291
3109,2092.504331588745
3110,2093.1963336467743
3111,2093.889335870743
3112,2094.5993378162384
3113,2095.3293402194977
3114,2096.0693423748016
3115,2096.79434466362
3116,2097.5173468589783
3117,2098.2363488674164
3118,2098.950350999832
3119,2099.6443531513214
3120,2100.318355321884
3121,2100.950357198715
3122,2101.5733590126038
3123,2102.2123608589172
3124,2102.8763630390167
3125,2103.5593650341034
3126,2104.255367040634
3127,2104.957369327545
3128,2105.63437128067
3129,2106.300373315811
3130,2106.964375257492
3131,2107.6103773117065
3132,2108.236379146576
3133,2108.839380979538
3134,2109.44038271904
3135,2110.0573847293854
3136,2110.7173867225647
3137,2111.4263887405396
3138,2112.1703910827637
3139,2112.9203934669495
3140,2113.6713955402374
3141,2114.4133977890015
3142,2115.1184000968933
3143,2115.8064019680023
3144,2116.4764041900635
3145,2117.1394062042236
3146,2117.807408094406
3147,2118.491410255432
3148,2119.1954123973846
3149,2119.9014143943787
3150,2120.6074166297913
3151,2121.3284187316895
3152,2122.0404210090637
3153,2122.7624230384827
3154,2123.4814252853394
3155,2124.17942738533
3156,2124.8814294338226
3157,2125.5874316692352
3158,2126.2634336948395
3159,2126.9424357414246
3160,2127.6114377975464
3161,2128.2894399166107
3162,2128.946441888809
3163,2129.631443977356
3164,2130.3054459095
3165,2130.9824481010437
3166,2131.655450105667
3167,2132.314451932907
3168,2132.9734539985657
3169,2133.6414561271667
3170,2134.3084580898285
3171,2134.9584600925446
3172,2135.6094620227814
3173,2136.2514638900757
3174,2136.915466070175
3175,2137.5974678993225
3176,2138.305470228195
3177,2138.990472316742
3178,2139.670474290848
3179,2140.315476179123
3180,2140.93447804451
3181,2141.5444798469543
3182,2142.12748169899
3183,2142.7184834480286
3184,2143.302485227585
3185,2143.902487039566
3186,2144.5174889564514
3187,2145.1524908542633
3188,2145.8004927635193
3189,2146.4464948177338
3190,2147.0864968299866
3191,2147.7214987277985
3192,2148.344500541687
3193,2148.9595024585724
3194,2149.5895042419434
3195,2150.229506254196
3196,2150.8795082569122
3197,2151.545510292053
3198,2152.222512245178
3199,2152.92351436615
3200,2153.6375164985657
3201,2154.3275187015533
3202,2155.013520717621
3203,2155.697522878647
3204,2156.3825249671936
3205,2157.06352686882
3206,2157.7385289669037
3207,2158.412530899048
3208,2159.090533018112
3209,2159.7825350761414
3210,2160.480537176132
3211,2161.1915395259857
3212,2161.9005415439606
3213,2162.588543653488
3214,2163.273545742035
3215,2163.966547727585
3216,2164.668550014496
3217,2165.368551969528
3218,2166.0365540981293
3219,2166.70055603981
3220,2167.348557949066
3221,2167.983559846878
3222,2168.623561859131
3223,2169.272563934326
3224,2169.9135658740997
3225,2170.5615677833557
3226,2171.2145698070526
3227,2171.8835718631744
3228,2172.5595738887787
3229,2173.2345757484436
3230,2173.870577812195
3231,2174.4635796546936
3232,2175.0755813121796
3233,2175.718583345413
3234,2176.4125854969025
3235,2177.1155877113342
3236,2177.8125896453857
3237,2178.4825916290283
3238,2179.1035935878754
3239,2179.7095954418182
3240,2180.3225972652435
3241,2180.9285991191864
3242,2181.553601026535
3243,2182.1956028938293
3244,2182.8486049175262
3245,2183.4906067848206
3246,2184.126608848572
3247,2184.7486107349396
3248,2185.374612569809
3249,2186.0186145305634
3250,2186.6976165771484
3251,2187.401618719101
3252,2188.1196208000183
3253,2188.838623046875
3254,2189.548625230789
3255,2190.217627286911
3256,2190.834629058838
3257,2191.4406309127808
3258,2192.055632829666
3259,2192.6716346740723
3260,2193.311636686325
3261,2193.9696385860443
3262,2194.6476407051086
3263,2195.3326427936554
3264,2196.017644882202
3265,2196.7146468162537
3266,2197.4256489276886
3267,2198.155651330948
3268,2198.8866534233093
3269,2199.6176557540894
3270,2200.3466579914093
3271,2201.0676600933075
3272,2201.7526621818542
3273,2202.4396641254425
3274,2203.116666316986
3275,2203.8006682395935
3276,2204.5006704330444
3277,2205.2216725349426
3278,2205.951674938202
3279,2206.6666769981384
3280,2207.3896791934967
3281,2208.110681295395
3282,2208.8146834373474
3283,2209.5186855793
3284,2210.2146878242493
3285,2210.9306898117065
3286,2211.6646921634674
3287,2212.40069437027
3288,2213.1566965579987
3289,2213.902698993683
3290,2214.6727011203766
3291,2215.4327034950256
3292,2216.1697058677673
3293,2216.882707834244
3294,2217.577709913254
3295,2218.2627120018005
3296,2218.953714132309
3297,2219.663716316223
3298,2220.38271856308
3299,2221.1027207374573
3300,2221.831722974777
3301,2222.542725086212
3302,2223.2307271957397
3303,2223.9107291698456
3304,2224.5617311000824
3305,2225.199733018875
3306,2225.8407349586487
3307,2226.469736814499
3308,2227.1137387752533
3309,2227.7677409648895
3310,2228.404742717743
3311,2228.994744539261
3312,2229.5747463703156
3313,2230.153748035431
3314,2230.7577497959137
3315,2231.408751964569
3316,2232.101753950119
3317,2232.8237562179565
3318,2233.567758321762
3319,2234.315760612488
3320,2235.0497629642487
3321,2235.7467648983
3322,2236.4247670173645
3323,2237.1087691783905
3324,2237.783771276474
3325,2238.4547731876373
3326,2239.1277751922607
3327,2239.7937772274017
3328,2240.456779241562
3329,2241.121781349182
3330,2241.803783416748
3331,2242.477785348892
3332,2243.1717875003815
3333,2243.8507895469666
3334,2244.5357916355133
3335,2245.2187936306
3336,2245.899795770645
3337,2246.5677976608276
3338,2247.237799882889
3339,2247.903801679611
3340,2248.5788037776947
3341,2249.2628059387207
3342,2249.9688079357147
3343,2250.6928102970123
3344,2251.4188125133514
3345,2252.1538145542145
3346,2252.8858168125153
3347,2253.6138191223145
3348,2254.3378212451935
3349,2255.0308232307434
3350,2255.7068254947662
3351,2256.3808274269104
3352,2257.0628294944763
3353,2257.7468316555023
3354,2258.4648337364197
3355,2259.197835922241
3356,2259.9338381290436
3357,2260.671840429306
3358,2261.4028425216675
3359,2262.129844903946
3360,2262.8468470573425
3361,2263.5418491363525
3362,2264.2188510894775
3363,2264.8848531246185
3364,2265.5368552207947
3365,2266.162857055664
3366,2266.789858818054
3367,2267.4378609657288
3368,2268.1028628349304
3369,2268.8128650188446
3370,2269.5108671188354
3371,2270.1818692684174
3372,2270.820871114731
3373,2271.420872926712
3374,2272.01087474823
3375,2272.611876487732
3376,2273.2258784770966
3377,2273.8308801651
3378,2274.407881975174
3379,2274.99188375473
3380,2275.6098856925964
3381,2276.217887401581
3382,2276.838889360428
3383,2277.451891183853
3384,2278.084892988205
3385,2278.738895177841
3386,2279.418897151947
3387,2280.100899219513
3388,2280.7789013385773
3389,2281.4689033031464
3390,2282.159905433655
3391,2282.8409075737
3392,2283.520909547806
3393,2284.2009115219116
3394,2284.876913547516
3395,2285.547915697098
3396,2286.221917629242
3397,2286.9069197177887
3398,2287.6099219322205
3399,2288.261923789978
3400,2288.890925884247
3401,2289.549927711487
3402,2290.261929988861
3403,2290.9649319648743
3404,2291.620934009552
3405,2292.2519359588623
3406,2292.9009380340576
3407,2293.557940006256
3408,2294.2309420108795
3409,2294.9159440994263
3410,2295.613946199417
3411,2296.342948436737
3412,2297.082950592041
3413,2297.84295296669
3414,2298.6099553108215
3415,2299.372957468033
3416,2300.12495970726
3417,2300.882961988449
3418,2301.634964466095
3419,2302.372966527939
3420,2303.1079688072205
3421,2303.8349709510803
3422,2304.5469732284546
3423,2305.249975204468
3424,2305.9969775676727
3425,2306.7599799633026
3426,2307.5019822120667
3427,2308.2479844093323
3428,2308.9819865226746
3429,2309.7139887809753
3430,2310.4539909362793
3431,2311.1869933605194
3432,2311.9089953899384
3433,2312.642997741699
3434,2313.382999897003
3435,2314.1270022392273
3436,2314.871004343033
3437,2315.613006591797
3438,2316.357008934021
3439,2317.0870110988617
3440,2317.760013103485
3441,2318.460015296936
3442,2319.189017534256
3443,2319.928019762039
3444,2320.6900219917297
3445,2321.434024333954
3446,2322.163026571274
3447,2322.879028558731
3448,2323.577030658722
3449,2324.2120327949524
3450,2324.874034643173
3451,2325.558036804199
3452,2326.2890388965607
3453,2327.0360412597656
3454,2327.801043510437
3455,2328.5390458106995
3456,2329.277048110962
3457,2329.9960501194
3458,2330.69505238533
3459,2331.393054485321
3460,2332.1060564517975
3461,2332.804058790207
3462,2333.479060649872
3463,2334.1370627880096
3464,2334.8030648231506
3465,2335.4910666942596
3466,2336.189069032669
3467,2336.8850710392
3468,2337.54807305336
3469,2338.172075033188
3470,2338.7870767116547
3471,2339.418078660965
3472,2340.1170806884766
3473,2340.810082912445
3474,2341.4650847911835
3475,2342.1300868988037
3476,2342.7990889549255
3477,2343.4620909690857
3478,2344.1340930461884
3479,2344.830095052719
3480,2345.56009721756
3481,2346.296099424362
3482,2347.026101589203
3483,2347.757103919983
3484,2348.480106115341
3485,2349.181108236313
3486,2349.876110315323
3487,2350.571112394333
3488,2351.2581145763397
3489,2351.929116487503
3490,2352.6061186790466
3491,2353.30912065506
3492,2354.0151228904724
3493,2354.7601251602173
3494,2355.4911272525787
3495,2356.219129562378
3496,2356.9441316127777
3497,2357.6991341114044
3498,2358.4621362686157
3499,2359.2071385383606
3500,2359.9331407546997
3501,2360.608142852783
3502,2361.304144859314
3503,2362.0271470546722
3504,2362.7861495018005
3505,2363.548151731491
3506,2364.319154024124
3507,2365.083156347275
3508,2365.8141584396362
3509,2366.535160779953
3510,2367.2541630268097
3511,2367.9711651802063
3512,2368.6661672592163
3513,2369.383169412613
3514,2370.070171356201
3515,2370.7321734428406
3516,2371.4461755752563
3517,2372.197177886963
3518,2372.9511802196503
3519,2373.696182489395
3520,2374.3981845378876
3521,2375.0541865825653
3522,2375.6851885318756
3523,2376.326190471649
3524,2376.973192214966
3525,2377.640194416046
3526,2378.3261964321136
3527,2379.0431985855103
3528,2379.7852008342743
3529,2380.518203020096
3530,2381.242205142975
3531,2381.9582073688507
3532,2382.6452095508575
3533,2383.3082115650177
3534,2383.939213514328
3535,2384.5922152996063
3536,2385.243217229843
3537,2385.8812193870544
3538,2386.5322213172913
3539,2387.217223405838
3540,2387.957225561142
3541,2388.7182278633118
3542,2389.4922301769257
3543,2390.261232614517
3544,2391.012234687805
3545,2391.7422370910645
3546,2392.462239265442
3547,2393.172241449356
3548,2393.894243478775
3549,2394.636245727539
3550,2395.365247964859
3551,2396.1012501716614
3552,2396.8412523269653
3553,2397.575254678726
3554,2398.3112568855286
3555,2399.045258998871
3556,2399.774261236191
3557,2400.5062634944916
3558,2401.2512657642365
3559,2401.9942679405212
3560,2402.7352702617645
3561,2403.476272583008
3562,2404.2012746334076
3563,2404.9322769641876
3564,2405.6412789821625
3565,2406.3352811336517
3566,2407.0492832660675
3567,2407.78528547287
3568,2408.5192878246307
3569,2409.2772901058197
3570,2410.015292406082
3571,2410.7312943935394
3572,2411.453296661377
3573,2412.1492986679077
3574,2412.832300901413
3575,2413.524302959442
3576,2414.2233049869537
3577,2414.9073071479797
3578,2415.5933091640472
3579,2416.276311159134
3580,2416.931313276291
3581,2417.5983152389526
3582,2418.2513172626495
3583,2418.895319223404
3584,2419.5413210392
3585,2420.178323030472
3586,2420.7743248939514
3587,2421.366326570511
3588,2421.958328485489
3589,2422.559330224991
3590,2423.164332151413
3591,2423.7763340473175
3592,2424.3933358192444
3593,2425.018337726593
3594,2425.650339603424
3595,2426.29834151268
3596,2426.9573435783386
3597,2427.5813455581665
3598,2428.2003474235535
3599,2428.852349281311
3600,2429.4933512210846
3601,2430.1023530960083
3602,2430.719354867935
3603,2431.361356973648
3604,2432.0113587379456
3605,2432.6643607616425
3606,2433.31836271286
3607,2434.000364780426
3608,2434.6913669109344
3609,2435.3963689804077
3610,2436.122371196747
3611,2436.871373653412
3612,2437.6433758735657
3613,2438.434378385544
3614,2439.232380628586
3615,2439.9853830337524
3616,2440.721385240555
3617,2441.43438744545
3618,2442.156389474869
3619,2442.916391849518
3620,2443.7143943309784
3621,2444.5293967723846
3622,2445.328399181366
3623,2446.1084015369415
3624,2446.875403881073
3625,2447.6404061317444
3626,2448.406408548355
3627,2449.1704108715057
3628,2449.949413061142
3629,2450.7184154987335
3630,2451.480417728424
3631,2452.2194199562073
3632,2452.9664223194122
3633,2453.707424402237
3634,2454.430426597595
3635,2455.164428949356
3636,2455.9214313030243
3637,2456.688433408737
3638,2457.4424357414246
3639,2458.1614379882812
3640,2458.876440048218
3641,2459.5694422721863
3642,2460.2754442691803
3643,2461.012446641922
3644,2461.780448913574
3645,2462.5954513549805
3646,2463.408453941345
3647,2464.209456205368
3648,2464.9634585380554
3649,2465.6914608478546
3650,2466.395462989807
3651,2467.088464975357
3652,2467.785467147827
3653,2468.4954693317413
3654,2469.2164714336395
3655,2469.9664738178253
3656,2470.7214760780334
3657,2471.452478170395
3658,2472.134480237961
3659,2472.7874822616577
3660,2473.437484264374
3661,2474.097486257553
3662,2474.763488292694
3663,2475.4284901618958
3664,2476.0944921970367
3665,2476.7614941596985
3666,2477.4324963092804
3667,2478.1294984817505
3668,2478.8565006256104
3669,2479.5975029468536
3670,2480.3525052070618
3671,2481.1095073223114
3672,2481.8455095291138
3673,2482.5495116710663
3674,2483.2455139160156
3675,2483.9285159111023
3676,2484.610517978668
3677,2485.284520149231
3678,2485.97252202034
3679,2486.6325240135193
3680,2487.264526128769
3681,2487.9065279960632
3682,2488.5645298957825
3683,2489.2065320014954
3684,2489.829533815384
3685,2490.442535638809
3686,2491.0895376205444
3687,2491.7695395946503
3688,2492.4535417556763
3689,2493.1325438022614
3690,2493.804545879364
3691,2494.465547800064
3692,2495.132549762726
3693,2495.802551984787
3694,2496.477553844452
3695,2497.156555891037
3696,2497.866558074951
3697,2498.59056019783
3698,2499.338562488556
3699,2500.098564863205
3700,2500.8605670928955
3701,2501.619569540024
3702,2502.372571706772
3703,2503.1065740585327
3704,2503.8155760765076
3705,2504.504578113556
3706,2505.2005803585052
3707,2505.9065823554993
3708,2506.6375846862793
3709,2507.382586956024
3710,2508.1265890598297
3711,2508.8665914535522
3712,2509.583593606949
3713,2510.2925956249237
3714,2510.9875979423523
3715,2511.6905999183655
3716,2512.380602121353
3717,2513.0976042747498
3718,2513.844606399536
3719,2514.6036088466644
3720,2515.3456110954285
3721,2516.0966131687164
3722,2516.828615427017
3723,2517.544617652893
3724,2518.2616198062897
3725,2518.9726219177246
3726,2519.666624069214
3727,2520.360626220703
3728,2521.0526282787323
3729,2521.756630420685
3730,2522.4786326885223
3731,2523.222634792328
3732,2523.979637145996
3733,2524.7126393318176
3734,2525.4026415348053
3735,2526.07764339447
3736,2526.7446455955505
3737,2527.40464758873
3738,2528.078649520874
3739,2528.7626516819
3740,2529.4536538124084
3741,2530.1486558914185
3742,2530.8436579704285
3743,2531.54065990448
3744,2532.2486622333527
3745,2532.981664419174
3746,2533.710666656494
3747,2534.42466878891
3748,2535.1096708774567
3749,2535.7786729335785
3750,2536.4566748142242
3751,2537.143676996231
3752,2537.8346791267395
3753,2538.506681203842
3754,2539.213683128357
3755,2539.918685436249
3756,2540.5776872634888
3757,2541.2356894016266
3758,2541.916691303253
3759,2542.60369348526
3760,2543.271695613861
3761,2543.909697532654
3762,2544.5506994724274
3763,2545.212701320648
3764,2545.900703430176
3765,2546.596705675125
3766,2547.260707616806
3767,2547.9287095069885
3768,2548.6137115955353
3769,2549.300713777542
3770,2549.9817159175873
3771,2550.6847178936005
3772,2551.419720172882
3773,2552.190722465515
3774,2552.9437248706818
3775,2553.691726922989
3776,2554.4257292747498
3777,2555.145731449127
3778,2555.8657336235046
3779,2556.5777356624603
3780,2557.2867379188538
3781,2558.0057401657104
3782,2558.7297422885895
3783,2559.4697444438934
3784,2560.2117466926575
3785,2560.9527490139008
3786,2561.690751314163
3787,2562.4267535209656
3788,2563.1487555503845
3789,2563.8477578163147
3790,2564.5587599277496
3791,2565.2747621536255
3792,2566.0097641944885
3793,2566.74476647377
3794,2567.486768722534
3795,2568.220771074295
3796,2568.958773136139
3797,2569.6907753944397
3798,2570.4197776317596
3799,2571.1437797546387
3800,2571.8577818870544
3801,2572.5707840919495
3802,2573.292786359787
3803,2574.0247886180878
3804,2574.748790740967
3805,2575.4817929267883
3806,2576.2227952480316
3807,2576.9647974967957
3808,2577.6817996501923
3809,2578.408801794052
3810,2579.140804052353
3811,2579.8608062267303
3812,2580.579808473587
3813,2581.3118104934692
3814,2582.0368127822876
3815,2582.753814935684
3816,2583.4628171920776
3817,2584.1928193569183
3818,2584.943821668625
3819,2585.6998238563538
3820,2586.453826189041
3821,2587.196828365326
3822,2587.923830509186
3823,2588.6438326835632
3824,2589.3348348140717
3825,2589.9848368167877
3826,2590.6118388175964
3827,2591.236840724945
3828,2591.8908426761627
3829,2592.5738446712494
3830,2593.2868468761444
3831,2594.006849050522
3832,2594.7338511943817
3833,2595.45685338974
3834,2596.1628556251526
3835,2596.862857580185
3836,2597.5828597545624
3837,2598.3118619918823
3838,2599.0088641643524
3839,2599.6728661060333
3840,2600.3638682365417
3841,2601.070870399475
3842,2601.768872499466
3843,2602.4708745479584
3844,2603.1708767414093
3845,2603.8968789577484
3846,2604.6358811855316
3847,2605.3798835277557
3848,2606.1208856105804
3849,2606.874887943268
3850,2607.629890203476
3851,2608.4098925590515
3852,2609.1758949756622
3853,2609.9418971538544
3854,2610.692899465561
3855,2611.431901693344
3856,2612.1649038791656
3857,2612.903906106949
3858,2613.650908470154
3859,2614.415910720825
3860,2615.1889131069183
3861,2615.9719154834747
3862,2616.7409179210663
3863,2617.497920036316
3864,2618.2469222545624
3865,2618.999924659729
3866,2619.773926973343
3867,2620.5509293079376
3868,2621.3249316215515
3869,2622.1109340190887
3870,2622.9049365520477
3871,2623.690938949585
3872,2624.480941295624
3873,2625.2559435367584
3874,2625.9899458885193
3875,2626.7179479599
3876,2627.462950229645
3877,2628.2259526252747
3878,2628.964954853058
3879,2629.7009570598602
3880,2630.440959215164
3881,2631.1999616622925
3882,2631.990963935852
3883,2632.766966342926
3884,2633.5319685935974
3885,2634.296970844269
3886,2635.0479731559753
3887,2635.777975320816
3888,2636.509977579117
3889,2637.2469799518585
3890,2637.9889822006226
3891,2638.735984325409
3892,2639.474986553192
3893,2640.2129888534546
3894,2640.962990999222
3895,2641.7029933929443
3896,2642.445995569229
3897,2643.1839978694916
3898,2643.919000148773
3899,2644.6480021476746
3900,2645.3810045719147
3901,2646.112006664276
3902,2646.8470089435577
3903,2647.5760111808777
3904,2648.323013305664
3905,2649.096015691757
3906,2649.8740179538727
3907,2650.6420204639435
3908,2651.415022611618
3909,2652.1610250473022
3910,2652.901027202606
3911,2653.620029449463
3912,2654.3060314655304
3913,2654.9800333976746
3914,2655.6380355358124
3915,2656.2670373916626
3916,2656.9100394248962
3917,2657.558041334152
3918,2658.217043399811
3919,2658.9080452919006
3920,2659.6230475902557
3921,2660.3360497951508
3922,2661.0530519485474
3923,2661.7750539779663
3924,2662.48605632782
3925,2663.204058408737
3926,2663.939060688019
3927,2664.6830627918243
3928,2665.4400651454926
3929,2666.1950674057007
3930,2666.9530696868896
3931,2667.702071905136
3932,2668.457074403763
3933,2669.223076581955
3934,2669.981078863144
3935,2670.7480812072754
3936,2671.517083644867
3937,2672.273085832596
3938,2673.0030879974365
3939,2673.728090286255
3940,2674.457092523575
3941,2675.192094564438
3942,2675.9290969371796
3943,2676.6770992279053
3944,2677.428101539612
3945,2678.1951036453247
3946,2678.9591059684753
3947,2679.707108259201
3948,2680.4241104125977
3949,2681.136112689972
3950,2681.8531148433685
3951,2682.55411696434
3952,2683.24711894989
3953,2683.9431211948395
3954,2684.650123357773
3955,2685.3521254062653
3956,2686.011127471924
3957,2686.6521294116974
3958,2687.3101313114166
3959,2688.0111334323883
3960,2688.7361357212067
3961,2689.454137802124
3962,2690.1321399211884
3963,2690.772141933441
3964,2691.405143737793
3965,2692.055145740509
3966,2692.718147754669
3967,2693.401149749756
3968,2694.1021518707275
3969,2694.8291540145874
3970,2695.566156387329
3971,2696.3201587200165
3972,2697.0891609191895
3973,2697.8551633358
3974,2698.597165584564
3975,2699.3441677093506
3976,2700.069169998169
3977,2700.780172109604
3978,2701.4871742725372
3979,2702.230176448822
3980,2703.0231788158417
3981,2703.8321812152863
3982,2704.6221837997437
3983,2705.4091861248016
3984,2706.1781883239746
3985,2706.937190771103
3986,2707.682193040848
3987,2708.435195207596
3988,2709.200197458267
3989,2709.968199968338
3990,2710.740202188492
3991,2711.5142045021057
3992,2712.2822070121765
3993,2713.0592093467712
3994,2713.8242115974426
3995,2714.558213710785
3996,2715.2942159175873
3997,2716.049218416214
3998,2716.805220603943
3999,2717.5722229480743
4000,2718.302225112915
4001,2719.034227371216
4002,2719.773229598999
4003,2720.513231754303
4004,2721.2362339496613
4005,2721.955236196518
4006,2722.6912384033203
4007,2723.4252405166626
4008,2724.17924284935
4009,2724.9592452049255
4010,2725.742247581482
4011,2726.5352499485016
4012,2727.3272523880005
4013,2728.1002547740936
4014,2728.8352570533752
4015,2729.564259290695
4016,2730.3032615184784
4017,2731.0412635803223
4018,2731.7712659835815
4019,2732.5242681503296
4020,2733.289270401001
4021,2734.068272829056
4022,2734.8442752361298
4023,2735.6032774448395
4024,2736.3402795791626
4025,2737.0742819309235
4026,2737.809284210205
4027,2738.533286333084
4028,2739.252288579941
4029,2739.9812908172607
4030,2740.736293077469
4031,2741.520295381546
4032,2742.309297800064
4033,2743.1053001880646
4034,2743.902302503586
4035,2744.673304796219
4036,2745.4003071784973
4037,2746.1163091659546
4038,2746.8343114852905
4039,2747.552313566208
4040,2748.281315803528
4041,2749.004317998886
4042,2749.715320110321
4043,2750.4513223171234
4044,2751.1933245658875
4045,2751.884326696396
4046,2752.584328889847
4047,2753.297331094742
4048,2754.005333185196
4049,2754.7033352851868
4050,2755.4013373851776
4051,2756.106339454651
4052,2756.83034157753
4053,2757.5543439388275
4054,2758.303346157074
4055,2759.0543484687805
4056,2759.818350791931
4057,2760.593353033066
4058,2761.376355409622
4059,2762.1753578186035
4060,2762.944360256195
4061,2763.7123625278473
4062,2764.471364736557
4063,2765.218367099762
4064,2765.978369474411
4065,2766.750371694565
4066,2767.5433740615845
4067,2768.3243765830994
4068,2769.0953788757324
4069,2769.8643810749054
4070,2770.6263835430145
4071,2771.3713858127594
4072,2772.1073880195618
4073,2772.8293900489807
4074,2773.55739235878
4075,2774.2723944187164
4076,2774.986396551132
4077,2775.736398935318
4078,2776.521401166916
4079,2777.317403793335
4080,2778.1064059734344
4081,2778.8534083366394
4082,2779.5944106578827
4083,2780.326412677765
4084,2781.07541513443
4085,2781.8114173412323
4086,2782.5654196739197
4087,2783.3534219264984
4088,2784.15442442894
4089,2784.952426671982
4090,2785.7504291534424
4091,2786.5314316749573
4092,2787.301433801651
4093,2788.066436290741
4094,2788.8304386138916
4095,2789.580440759659
4096,2790.3004429340363
4097,2791.0094451904297
4098,2791.725447177887
4099,2792.4494495391846
4100,2793.185451745987
4101,2793.940454006195
4102,2794.7184562683105
4103,2795.4844586849213
4104,2796.235460996628
4105,2796.9924631118774
4106,2797.743465423584
4107,2798.4844677448273
4108,2799.235470056534
4109,2799.990472316742
4110,2800.753474712372
4111,2801.517476797104
4112,2802.306479215622
4113,2803.100481748581
4114,2803.8784840106964
4115,2804.6384863853455
4116,2805.3884885311127
4117,2806.1094908714294
4118,2806.824492931366
4119,2807.5104949474335
4120,2808.154496908188
4121,2808.8164989948273
4122,2809.515501022339
4123,2810.2265033721924
4124,2810.9655055999756
4125,2811.7235078811646
4126,2812.4785101413727
4127,2813.2345123291016
4128,2813.99151468277
4129,2814.728516817093
4130,2815.4645190238953
4131,2816.201521396637
4132,2816.939523458481
4133,2817.696525812149
4134,2818.467528104782
4135,2819.2315304279327
4136,2819.9955327510834
4137,2820.759535074234
4138,2821.535537481308
4139,2822.280539751053
4140,2823.0105419158936
4141,2823.745544195175
4142,2824.49054646492
4143,2825.2555487155914
4144,2826.0305511951447
4145,2826.7945532798767
4146,2827.548555612564
4147,2828.2895579338074
4148,2829.008560180664
4149,2829.7365622520447
4150,2830.462564468384
4151,2831.187566757202
4152,2831.9025688171387
4153,2832.5695707798004
4154,2833.23157286644
4155,2833.925575017929
4156,2834.662577152252
4157,2835.3985793590546
4158,2836.1095814704895
4159,2836.7745835781097
4160,2837.4415855407715
4161,2838.1355876922607
4162,2838.856589794159
4163,2839.587592124939
4164,2840.3205943107605
4165,2841.0595965385437
4166,2841.8105988502502
4167,2842.5766010284424
4168,2843.347603559494
4169,2844.1176059246063
4170,2844.8876080513
4171,2845.65261054039
4172,2846.408612728119
4173,2847.163614988327
4174,2847.937617301941
4175,2848.7306196689606
4176,2849.533622264862
4177,2850.325624704361
4178,2851.120626926422
4179,2851.904629468918
4180,2852.67263174057
4181,2853.4426341056824
4182,2854.2116363048553
4183,2854.9686386585236
4184,2855.7006409168243
4185,2856.4376430511475
4186,2857.2006454467773
4187,2857.9796476364136
4188,2858.7426500320435
4189,2859.5136523246765
4190,2860.280654668808
4191,2861.0366570949554
4192,2861.7976593971252
4193,2862.5496616363525
4194,2863.277663707733
4195,2864.011666059494
4196,2864.754668235779
4197,2865.5346705913544
4198,2866.303673028946
4199,2867.037675142288
4200,2867.7606773376465
4201,2868.4836795330048
4202,2869.203681707382
4203,2869.898683786392
4204,2870.58668589592
4205,2871.264688014984
4206,2871.9196898937225
4207,2872.60769200325
4208,2873.278694152832
4209,2873.9776961803436
4210,2874.711698293686
4211,2875.440700531006
4212,2876.169702768326
4213,2876.8857049942017
4214,2877.547707080841
4215,2878.1947088241577
4216,2878.851710796356
4217,2879.538712978363
4218,2880.222715139389
4219,2880.928717136383
4220,2881.654719352722
4221,2882.4067215919495
4222,2883.1537239551544
4223,2883.875726222992
4224,2884.59672832489
4225,2885.3227305412292
4226,2886.057732820511
4227,2886.8137350082397
4228,2887.5887372493744
4229,2888.356739759445
4230,2889.094741821289
4231,2889.838744163513
4232,2890.5907464027405
4233,2891.3517487049103
4234,2892.0917508602142
4235,2892.815753221512
4236,2893.549755334854
4237,2894.2937576770782
4238,2895.0357599258423
4239,2895.7857620716095
4240,2896.5327644348145
4241,2897.270766735077
4242,2897.9987688064575
4243,2898.7257709503174
4244,2899.4517731666565
4245,2900.1747753620148
4246,2900.8917775154114
4247,2901.6207797527313
4248,2902.3627820014954
4249,2903.0917842388153
4250,2903.8127863407135
4251,2904.535788536072
4252,2905.2707908153534
4253,2905.990792989731
4254,2906.695795059204
4255,2907.4197974205017
4256,2908.1637995243073
4257,2908.896801710129
4258,2909.626804113388
4259,2910.345806121826
4260,2911.066808462143
4261,2911.7738106250763
4262,2912.4768126010895
4263,2913.1748147010803
4264,2913.8848168849945
4265,2914.5588190555573
4266,2915.199820995331
4267,2915.8258228302
4268,2916.4538247585297
4269,2917.0998265743256
4270,2917.7558286190033
4271,2918.4208307266235
4272,2919.088832616806
4273,2919.7318346500397
4274,2920.3458364009857
4275,2920.976838350296
4276,2921.6338403224945
4277,2922.3048424720764
4278,2922.990844488144
4279,2923.695846557617
4280,2924.398848772049
4281,2925.109850883484
4282,2925.832853078842
4283,2926.5698552131653
4284,2927.3138575553894
4285,2928.030859708786
4286,2928.7428619861603
4287,2929.441864013672
4288,2930.1328661441803
4289,2930.7888679504395
4290,2931.4228699207306
4291,2932.032871723175
4292,2932.6318736076355
4293,2933.258875608444
4294,2933.924877643585
4295,2934.5988795757294
4296,2935.241881608963
4297,2935.85688328743
4298,2936.492885351181
4299,2937.1488873958588
4300,2937.8188893795013
4301,2938.4898912906647
4302,2939.1668934822083
4303,2939.846895456314
4304,2940.510897397995
4305,2941.1378993988037
4306,2941.7779014110565
4307,2942.4659032821655
4308,2943.219905614853
4309,2944.000908136368
4310,2944.7579102516174
4311,2945.539912700653
4312,2946.3219151496887
4313,2947.0949172973633
4314,2947.831919670105
4315,2948.4859216213226
4316,2949.1339235305786
4317,2949.8169255256653
4318,2950.503927707672
4319,2951.1979298591614
4320,2951.928931951523
4321,2952.6929342746735
4322,2953.4799365997314
4323,2954.263939142227
4324,2955.027941465378
4325,2955.76194357872
4326,2956.5009458065033
4327,2957.230947971344
4328,2957.9379501342773
4329,2958.6349523067474
4330,2959.335954427719
4331,2960.0609567165375
4332,2960.7979588508606
4333,2961.5769612789154
4334,2962.380963563919
4335,2963.1799659729004
4336,2963.9659683704376
4337,2964.73797082901
4338,2965.4859731197357
4339,2966.208975315094
4340,2966.9399774074554
4341,2967.6849796772003
4342,2968.4419820308685
4343,2969.1919841766357
4344,2969.9429864883423
4345,2970.685988664627
4346,2971.440991163254
4347,2972.15399312973
4348,2972.8189952373505
4349,2973.508997440338
4350,2974.219999551773
4351,2974.949001789093
4352,2975.691004037857
4353,2976.415006160736
4354,2977.1670083999634
4355,2977.944010734558
4356,2978.7370131015778
4357,2979.4850153923035
4358,2980.231017589569
4359,2980.9740200042725
4360,2981.7190222740173
4361,2982.4550244808197
4362,2983.2110266685486
4363,2984.00802898407
4364,2984.8050315380096
4365,2985.572033882141
4366,2986.3530361652374
4367,2987.119038581848
4368,2987.843040704727
4369,2988.5760428905487
4370,2989.34104514122
4371,2990.1120476722717
4372,2990.862049818039
4373,2991.651052236557
4374,2992.4450545310974
4375,2993.227056980133
4376,2994.0020592212677
4377,2994.779061794281
4378,2995.551064014435
4379,2996.3330664634705
4380,2997.116068840027
4381,2997.903071165085
4382,2998.7040736675262
4383,2999.505075931549
4384,3000.286078453064
4385,3001.0780806541443
4386,3001.8840832710266
4387,3002.6880855560303
4388,3003.480087995529
4389,3004.2940905094147
4390,3005.1030929088593
4391,3005.893095254898
4392,3006.6330976486206
4393,3007.3740997314453
4394,3008.1261019706726
4395,3008.851104259491
4396,3009.591106414795
4397,3010.354108810425
4398,3011.122111082077
4399,3011.8921134471893
4400,3012.653115749359
4401,3013.3941180706024
4402,3014.1281201839447
4403,3014.8621225357056
4404,3015.5841245651245
4405,3016.2821266651154
4406,3017.006129026413
4407,3017.7401311397552
4408,3018.4611332416534
4409,3019.183135509491
4410,3019.9151377677917
4411,3020.669140100479
4412,3021.4491424560547
4413,3022.235144853592
4414,3023.0111470222473
4415,3023.762149333954
4416,3024.486151456833
4417,3025.198153734207
4418,3025.9261560440063
4419,3026.6781582832336
4420,3027.4551606178284
4421,3028.2471630573273
4422,3029.040165424347
4423,3029.8441677093506
4424,3030.6331701278687
4425,3031.3991725444794
4426,3032.166174888611
4427,3032.9421770572662
4428,3033.689179420471
4429,3034.402181625366
4430,3035.118183851242
4431,3035.8591859340668
4432,3036.614188194275
4433,3037.387190580368
4434,3038.174192905426
4435,3038.966195344925
4436,3039.7381978034973
4437,3040.4962000846863
4438,3041.241202354431
4439,3041.9732043743134
4440,3042.697206735611
4441,3043.42320895195
4442,3044.142210960388
4443,3044.8972132205963
4444,3045.663215637207
4445,3046.4352180957794
4446,3047.213220357895
4447,3047.986222743988
4448,3048.7192249298096
4449,3049.4432270526886
4450,3050.1572291851044
4451,3050.8702313899994
4452,3051.5512335300446
4453,3052.1892354488373
4454,3052.874237537384
4455,3053.582239627838
4456,3054.3052418231964
4457,3055.004243850708
4458,3055.751246213913
4459,3056.5102484226227
4460,3057.2602508068085
4461,3057.980252981186
4462,3058.7112550735474
4463,3059.4502573013306
4464,3060.1942596435547
4465,3060.9292619228363
4466,3061.6662640571594
4467,3062.427266359329
4468,3063.202268600464
4469,3063.9862711429596
4470,3064.769273519516
4471,3065.54327583313
4472,3066.2872779369354
4473,3067.0152802467346
4474,3067.7622826099396
4475,3068.519284725189
4476,3069.2762870788574
4477,3070.038289308548
4478,3070.8282918930054
4479,3071.592294216156
4480,3072.348296403885
4481,3073.1312987804413
4482,3073.9013011455536
4483,3074.64830327034
4484,3075.4073057174683
4485,3076.1783080101013
4486,3076.9443101882935
4487,3077.6953125
4488,3078.455314874649
4489,3079.210317134857
4490,3079.9483194351196
4491,3080.682321548462
4492,3081.44132399559
4493,3082.1673262119293
4494,3082.8853282928467
4495,3083.605330467224
4496,3084.3263325691223
4497,3085.0263347625732
4498,3085.7153367996216
4499,3086.401338815689
4500,3087.1003410816193
4501,3087.8063430786133
4502,3088.540345430374
4503,3089.3063476085663
4504,3090.1053500175476
4505,3090.87935256958
4506,3091.6543548107147
4507,3092.408357143402
4508,3093.133359193802
4509,3093.8393614292145
4510,3094.540363550186
4511,3095.243365764618
4512,3095.9633679389954
4513,3096.7133700847626
4514,3097.480372428894
4515,3098.256374835968
4516,3099.030377149582
4517,3099.7813794612885
4518,3100.51438164711
4519,3101.2343838214874
4520,3101.9473860263824
4521,3102.660387992859
4522,3103.388390302658
4523,3104.149392604828
4524,3104.9053947925568
4525,3105.638397216797
4526,3106.37339925766
4527,3107.1084015369415
4528,3107.828403711319
4529,3108.5534060001373
4530,3109.268408060074
4531,3109.999410390854
4532,3110.715412378311
4533,3111.451414823532
4534,3112.2144169807434
4535,3112.996419429779
4536,3113.7584216594696
4537,3114.5134239196777
4538,3115.252426147461
4539,3115.981428384781
4540,3116.7314307689667
4541,3117.494432926178
4542,3118.2714352607727
4543,3119.043437719345
4544,3119.8084399700165
4545,3120.578442335129
4546,3121.3234446048737
4547,3122.059446811676
4548,3122.787449121475
4549,3123.5004510879517
4550,3124.2064533233643
4551,3124.9244554042816
4552,3125.6554577350616
4553,3126.3804597854614
4554,3127.087461948395
4555,3127.8374643325806
4556,3128.600466489792
4557,3129.349468946457
4558,3130.059471130371
4559,3130.765473127365
4560,3131.460475206375
4561,3132.1204771995544
4562,3132.7384791374207
4563,3133.356481075287
4564,3134.001482963562
4565,3134.678484916687
4566,3135.3244869709015
4567,3135.9824888706207
4568,3136.692491054535
4569,3137.432493209839
4570,3138.1864955425262
4571,3138.9094977378845
4572,3139.613499879837
4573,3140.313502073288
4574,3141.039504289627
4575,3141.780506372452
4576,3142.50350856781
4577,3143.2465109825134
4578,3144.0195133686066
4579,3144.8045156002045
4580,3145.58651804924
4581,3146.3705203533173
4582,3147.145522594452
4583,3147.9005250930786
4584,3148.6355271339417
4585,3149.365529537201
4586,3150.100531578064
4587,3150.834533929825
4588,3151.5655360221863
4589,3152.3205382823944
4590,3153.0855407714844
4591,3153.82954287529
4592,3154.5725452899933
4593,3155.3145475387573
4594,3156.068549633026
4595,3156.8415520191193
4596,3157.6275544166565
4597,3158.425556898117
4598,3159.19855928421
4599,3159.9945616722107
4600,3160.7835640907288
4601,3161.5605664253235
4602,3162.322568655014
4603,3163.078570842743
4604,3163.838573217392
4605,3164.6035754680634
4606,3165.3285777568817
4607,3166.059579849243
4608,3166.8445823192596
4609,3167.6505846977234
4610,3168.4715871810913
4611,3169.311589717865
4612,3170.0935921669006
4613,3170.8545944690704
4614,3171.592596769333
4615,3172.3105988502502
4616,3173.0156009197235
4617,3173.727603197098
4618,3174.4556052684784
4619,3175.1416075229645
4620,3175.814609527588
4621,3176.530611515045
4622,3177.2636139392853
4623,3177.9836161136627
4624,3178.6946182250977
4625,3179.4036202430725
4626,3180.1036224365234
4627,3180.7846245765686
4628,3181.472626686096
4629,3182.184628725052
4630,3182.9206309318542
4631,3183.6566331386566
4632,3184.4036355018616
4633,3185.16063785553
4634,3185.8876399993896
4635,3186.6096420288086
4636,3187.3226442337036
4637,3188.031646490097
4638,3188.729648590088
4639,3189.4386506080627
4640,3190.1596529483795
4641,3190.8946549892426
4642,3191.629657268524
4643,3192.360659599304
4644,3193.0936617851257
4645,3193.8126640319824
4646,3194.5286660194397
4647,3195.2426681518555
4648,3195.9656703472137
4649,3196.693672657013
4650,3197.4406747817993
4651,3198.1816771030426
4652,3198.906679391861
4653,3199.6576817035675
4654,3200.416683912277
4655,3201.1846861839294
4656,3201.961688518524
4657,3202.7016909122467
4658,3203.388692855835
4659,3204.0506949424744
4660,3204.725697040558
4661,3205.415699005127
4662,3206.1247012615204
4663,3206.804703235626
4664,3207.4787051677704
4665,3208.189707517624
4666,3208.9077095985413
4667,3209.610711812973
4668,3210.3097138404846
4669,3211.037716150284
4670,3211.8107182979584
4671,3212.590720653534
4672,3213.3787231445312
4673,3214.17072558403
4674,3214.9807279109955
4675,3215.768730401993
4676,3216.5287325382233
4677,3217.292734861374
4678,3218.0617372989655
4679,3218.8217396736145
4680,3219.588742017746
4681,3220.370744228363
4682,3221.165746688843
4683,3221.9477491378784
4684,3222.706751346588
4685,3223.4737536907196
4686,3224.2367560863495
4687,3224.9947583675385
4688,3225.753760576248
4689,3226.530762910843
4690,3227.319765329361
4691,3228.0997676849365
4692,3228.8757700920105
4693,3229.653772354126
4694,3230.4317746162415
4695,3231.187777042389
4696,3231.945779323578
4697,3232.7047815322876
4698,3233.463783979416
4699,3234.221786260605
4700,3234.9837884902954
4701,3235.75879073143
4702,3236.5287930965424
4703,3237.2887954711914
4704,3238.003797531128
4705,3238.6807997226715
4706,3239.399801969528
4707,3240.153804063797
4708,3240.9358065128326
4709,3241.718808889389
4710,3242.494811296463
4711,3243.250813484192
4712,3243.9968156814575
4713,3244.719817876816
4714,3245.4388201236725
4715,3246.16082239151
4716,3246.898824453354
4717,3247.6598267555237
4718,3248.4048290252686
4719,3249.1668314933777
4720,3249.944833755493
4721,3250.723836183548
4722,3251.479838371277
4723,3252.2358407974243
4724,3252.996843099594
4725,3253.765845298767
4726,3254.544847726822
4727,3255.312849998474
4728,3256.0828523635864
4729,3256.865854740143
4730,3257.65185713768
4731,3258.4508595466614
4732,3259.27286195755
4733,3260.095864534378
4734,3260.9108669757843
4735,3261.669869184494
4736,3262.432871580124
4737,3263.1998739242554
4738,3263.9868762493134
4739,3264.7418785095215
4740,3265.506880760193
4741,3266.264883041382
4742,3266.9988853931427
4743,3267.7318875789642
4744,3268.461889743805
4745,3269.14289188385
4746,3269.8158938884735
4747,3270.538896083832
4748,3271.26389837265
4749,3271.998900413513
4750,3272.745902776718
4751,3273.4899051189423
4752,3274.2089071273804
4753,3274.9379093647003
4754,3275.66491150856
4755,3276.4039137363434
4756,3277.1509160995483
4757,3277.9189183712006
4758,3278.685920715332
4759,3279.4319229125977
4760,3280.182925224304
4761,3280.93092751503
4762,3281.6739296913147
4763,3282.4229321479797
4764,3283.1789343357086
4765,3283.9379365444183
4766,3284.6809389591217
4767,3285.4209411144257
4768,3286.174943447113
4769,3286.9269456863403
4770,3287.675947904587
4771,3288.429950237274
4772,3289.1709525585175
4773,3289.90695476532
4774,3290.6039566993713
4775,3291.2849588394165
4776,3291.9799609184265
4777,3292.669963121414
4778,3293.3149650096893
4779,3293.9569668769836
4780,3294.618968963623
4781,3295.2939710617065
4782,3295.982973098755
4783,3296.6839752197266
4784,3297.3849773406982
4785,3298.05397939682
4786,3298.6829812526703
4787,3299.3039832115173
4788,3299.908984899521
4789,3300.5309867858887
4790,3301.195988893509
4791,3301.882990837097
4792,3302.583992958069
4793,3303.2929952144623
4794,3304.019997358322
4795,3304.7459995746613
4796,3305.4500017166138
4797,3306.1430037021637
4798,3306.840005874634
4799,3307.5580081939697
4800,3308.2930102348328
4801,3309.053012609482
4802,3309.8140149116516
4803,3310.5740172863007
4804,3311.341019630432
4805,3312.086021900177
4806,3312.7980239391327
4807,3313.531026124954
4808,3314.2690284252167
4809,3315.0250306129456
4810,3315.7880330085754
4811,3316.5440351963043
4812,3317.289037466049
4813,3318.0150396823883
4814,3318.734041929245
4815,3319.4330439567566
4816,3320.1140460968018
4817,3320.7910480499268
4818,3321.4960503578186
4819,3322.213052511215
4820,3322.9360547065735
4821,3323.664056777954
4822,3324.4030590057373
4823,3325.130061149597
4824,3325.854063510895
4825,3326.5550656318665
4826,3327.238067626953
4827,3327.936069726944
4828,3328.660071849823
4829,3329.3820741176605
4830,3330.120076417923
4831,3330.8550786972046
4832,3331.5950808525085
4833,3332.3220829963684
4834,3333.0560853481293
4835,3333.7870874404907
4836,3334.510089635849
4837,3335.238091945648
4838,3335.9530940055847
4839,3336.671096086502
4840,3337.374098300934
4841,3338.02410030365
4842,3338.6491022109985
4843,3339.2861042022705
4844,3339.927106142044
4845,3340.565108060837
4846,3341.2061100006104
4847,3341.828111886978
4848,3342.42911362648
4849,3343.033115386963
4850,3343.6481173038483
4851,3344.2761192321777
4852,3344.923121213913
4853,3345.592123270035
4854,3346.2721252441406
4855,3346.974127292633
4856,3347.6911294460297
4857,3348.4201316833496
4858,3349.155133962631
4859,3349.887136220932
4860,3350.5891382694244
4861,3351.3011405467987
4862,3352.0341427326202
4863,3352.7731449604034
4864,3353.48814702034
4865,3354.2231492996216
4866,3354.9671516418457
4867,3355.717153787613
4868,3356.477156162262
4869,3357.2311584949493
4870,3357.9661605358124
4871,3358.68816280365
4872,3359.4001648426056
4873,3360.1131670475006
4874,3360.840169429779
4875,3361.5861716270447
4876,3362.3241736888885
4877,3363.0701761245728
4878,3363.8161783218384
4879,3364.5551805496216
4880,3365.261182785034
4881,3365.9471848011017
4882,3366.6351869106293
4883,3367.2951889038086
4884,3367.934190750122
4885,3368.5701928138733
4886,3369.203194618225
4887,3369.856196641922
4888,3370.5231986045837
4889,3371.1872005462646
4890,3371.821202516556
4891,3372.439204454422
4892,3373.0492062568665
4893,3373.6552081108093
4894,3374.2632098197937
4895,3374.85121178627
4896,3375.4292135238647
4897,3376.0012152194977
4898,3376.5922169685364
4899,3377.214218854904
4900,3377.8642208576202
4901,3378.564223051071
4902,3379.2612249851227
4903,3379.944227218628
4904,3380.605229139328
4905,3381.282231092453
4906,3381.97123336792
4907,3382.650235414505
4908,3383.3282372951508
4909,3384.0292394161224
4910,3384.748241662979
4911,3385.4652438163757
4912,3386.191246032715
4913,3386.9132483005524
4914,3387.628250360489
4915,3388.338252544403
4916,3389.0592546463013
4917,3389.786256790161
4918,3390.491259098053
4919,3391.166260957718
4920,3391.8542630672455
4921,3392.573265314102
4922,3393.323267698288
4923,3394.0952699184418
4924,3394.849272251129
4925,3395.578274488449
4926,3396.2832765579224
4927,3396.9612786769867
4928,3397.617280483246
4929,3398.2892825603485
4930,3398.9812846183777
4931,3399.708287000656
4932,3400.4712891578674
4933,3401.238291501999
4934,3401.9742937088013
4935,3402.707295894623
4936,3403.440298318863
4937,3404.1833004951477
4938,3404.914302587509
4939,3405.6373047828674
4940,3406.344306945801
4941,3407.052309036255
4942,3407.7743113040924
4943,3408.5193135738373
4944,3409.285315990448
4945,3410.054318189621
4946,3410.8053205013275
4947,3411.554322719574
4948,3412.3003249168396
4949,3413.025327205658
4950,3413.736329317093
4951,3414.446331501007
4952,3415.173333644867
4953,3415.9083359241486
4954,3416.659338235855
4955,3417.4243404865265
4956,3418.1983428001404
4957,3418.977345228195
4958,3419.759347677231
4959,3420.5183498859406
4960,3421.233351945877
4961,3421.951354265213
4962,3422.683356523514
4963,3423.4113585948944
4964,3424.1683609485626
4965,3424.9453632831573
4966,3425.7083656787872
4967,3426.448367834091
4968,3427.1863701343536
4969,3427.9183723926544
4970,3428.649374485016
4971,3429.39137673378
4972,3430.151379108429
4973,3430.9313814640045
4974,3431.6993837356567
4975,3432.4633860588074
4976,3433.243388414383
4977,3434.011390686035
4978,3434.7393929958344
4979,3435.440395116806
4980,3436.14839720726
4981,3436.8953993320465
4982,3437.666401863098
4983,3438.4444041252136
4984,3439.2364065647125
4985,3440.0224089622498
4986,3440.7964112758636
4987,3441.5654134750366
4988,3442.3294157981873
4989,3443.0754182338715
4990,3443.8314204216003
4991,3444.6014227867126
4992,3445.381425142288
4993,3446.173427581787
4994,3446.981430053711
4995,3447.7584323883057
4996,3448.534434556961
4997,3449.3084371089935
4998,3450.0594391822815
4999,3450.7934415340424
5000,3451.5354437828064
5001,3452.2924461364746
5002,3453.0634484291077
5003,3453.815450668335
5004,3454.5584528446198
5005,3455.310455083847
5006,3456.054457426071
5007,3456.7904596328735
5008,3457.5194618701935
5009,3458.247463941574
5010,3458.996466398239
5011,3459.749468564987
5012,3460.5034708976746
5013,3461.252473115921
5014,3461.997475385666
5015,3462.7584776878357
5016,3463.5174798965454
5017,3464.2874822616577
5018,3465.0524847507477
5019,3465.801486968994
5020,3466.5634891986847
5021,3467.286491394043
5022,3467.9584934711456
5023,3468.6084954738617
5024,3469.2854974269867
5025,3469.9754996299744
5026,3470.6835017204285
5027,3471.4065039157867
5028,3472.14550614357
5029,3472.8895082473755
5030,3473.6345105171204
5031,3474.3655128479004
5032,3475.097515106201
5033,3475.829517364502
5034,3476.556519508362
5035,3477.2855217456818
5036,3478.021523952484
5037,3478.7545261383057
5038,3479.517528295517
5039,3480.2865307331085
5040,3481.0415329933167
5041,3481.762535095215
5042,3482.4785373210907
5043,3483.183539390564
5044,3483.8785417079926
5045,3484.5625436306
5046,3485.2375457286835
5047,3485.909547805786
5048,3486.5825498104095
5049,3487.2675518989563
5050,3487.9895539283752
5051,3488.7465562820435
5052,3489.5095586776733
5053,3490.2925610542297
5054,3491.089563369751
5055,3491.860565662384
5056,3492.6085679531097
5057,3493.349570274353
5058,3494.0565724372864
5059,3494.758574485779
5060,3495.4755766391754
5061,3496.2095789909363
5062,3496.920581102371
5063,3497.631583213806
5064,3498.3465852737427
5065,3499.0775876045227
5066,3499.847589969635
5067,3500.647592306137
5068,3501.4325947761536
5069,3502.210597038269
5070,3502.968599319458
5071,3503.699601650238
5072,3504.402603626251
5073,3505.1046059131622
5074,3505.805608034134
5075,3506.5206100940704
5076,3507.258612394333
5077,3508.016614675522
5078,3508.7836170196533
5079,3509.584619283676
5080,3510.3886218070984
5081,3511.1776242256165
5082,3511.944626569748
5083,3512.697628736496
5084,3513.4276309013367
5085,3514.154633283615
5086,3514.8886353969574
5087,3515.6336376667023
5088,3516.392639875412
5089,3517.153642177582
5090,3517.9096446037292
5091,3518.6626467704773
5092,3519.399649143219
5093,3520.108651161194
5094,3520.7966532707214
5095,3521.5086555480957
5096,3522.2326576709747
5097,3522.934659719467
5098,3523.647661924362
5099,3524.3596642017365
5100,3525.0466661453247
5101,3525.7316682338715
5102,3526.403670310974
5103,3527.072672367096
5104,3527.7296743392944
5105,3528.4096763134003
5106,3529.112678527832
5107,3529.834680557251
5108,3530.581682920456
5109,3531.3436851501465
5110,3532.096687555313
5111,3532.839689731598
5112,3533.578691959381
5113,3534.2956941127777
5114,3535.0116963386536
5115,3535.7126984596252
5116,3536.4037005901337
5117,3537.0867025852203
5118,3537.7317044734955
5119,3538.361706495285
5120,3539.0327084064484
5121,3539.720710515976
5122,3540.415712594986
5123,3541.126714706421
5124,3541.841717004776
5125,3542.5757191181183
5126,3543.3137214183807
5127,3544.0477237701416
5128,3544.7697257995605
5129,3545.4997279644012
5130,3546.250730276108
5131,3546.991732597351
5132,3547.7307348251343
5133,3548.473737001419
5134,3549.2097392082214
5135,3549.929741382599
5136,3550.671743631363
5137,3551.436746120453
5138,3552.1817483901978
5139,3552.931750535965
5140,3553.67875289917
5141,3554.4257550239563
5142,3555.1647572517395
5143,3555.8967595100403
5144,3556.6197617053986
5145,3557.324763774872
5146,3558.0437660217285
5147,3558.789768218994
5148,3559.550770521164
5149,3560.3037729263306
5150,3561.0517752170563
5151,3561.7987773418427
5152,3562.5167796611786
5153,3563.2277817726135
5154,3563.939783811569
5155,3564.6597859859467
5156,3565.3787882328033
5157,3566.111790418625
5158,3566.85879278183
