,ECG_peaks
0,0.0
1,0.8969929218292236
2,1.7979857921600342
3,2.6969785690307617
4,3.5779716968536377
5,4.439964771270752
6,5.296957969665527
7,6.1709511280059814
8,7.060944080352783
9,7.9739367961883545
10,8.904929399490356
11,9.851921796798706
12,10.804914236068726
13,11.734906911849976
14,12.676899433135986
15,13.617891788482666
16,14.553884506225586
17,15.455877304077148
18,16.354870080947876
19,17.232863187789917
20,18.07585644721985
21,18.920849800109863
22,19.77384305000305
23,20.642836093902588
24,21.487829446792603
25,22.325822830200195
26,23.174815893173218
27,24.034809112548828
28,24.911802291870117
29,25.80279517173767
30,26.70378804206848
31,27.587780952453613
32,28.46977400779724
33,29.320767164230347
34,30.136760711669922
35,30.90675449371338
36,31.67874836921692
37,32.45874238014221
38,33.25973582267761
39,34.10272932052612
40,35.004722118377686
41,35.90871477127075
42,36.79270792007446
43,37.63970112800598
44,38.4866943359375
45,39.37168741226196
46,40.284680128097534
47,41.237672567367554
48,42.21066474914551
49,43.18865704536438
50,44.161649227142334
51,45.12364172935486
52,46.098634004592896
53,47.062626361846924
54,48.03061866760254
55,49.00261092185974
56,49.97760319709778
57,50.96159529685974
58,51.94958758354187
59,52.95057940483093
60,53.93757176399231
61,54.93156385421753
62,55.917556047439575
63,56.893548250198364
64,57.87954044342041
65,58.846532583236694
66,59.764525413513184
67,60.601518869400024
68,61.43351221084595
69,62.26150560379028
70,63.093498945236206
71,63.93049240112305
72,64.80348539352417
73,65.6764783859253
74,66.549471616745
75,67.41146469116211
76,68.26245784759521
77,69.10145115852356
78,69.9124448299408
79,70.70943856239319
80,71.48443222045898
81,72.2474262714386
82,73.01042008399963
83,73.77141404151917
84,74.53740811347961
85,75.32840180397034
86,76.16639518737793
87,77.0123884677887
88,77.84038186073303
89,78.69037508964539
90,79.61336779594421
91,80.60135984420776
92,81.63435173034668
93,82.67034339904785
94,83.7623348236084
95,84.87332606315613
96,85.97731733322144
97,87.06430864334106
98,88.11130023002625
99,89.14629197120667
100,90.2012836933136
101,91.21927547454834
102,92.20926761627197
103,93.22425961494446
104,94.24125146865845
105,95.2622435092926
106,96.24723553657532
107,97.23722767829895
108,98.20521998405457
109,99.20321226119995
110,100.22320413589478
111,101.27219581604004
112,102.30918741226196
113,103.30217957496643
114,104.30117177963257
115,105.32816362380981
116,106.36615538597107
117,107.42414689064026
118,108.45313882827759
119,109.42213106155396
120,110.41812300682068
121,111.42911505699158
122,112.45610690116882
123,113.503098487854
124,114.53909039497375
125,115.53008246421814
126,116.51507472991943
127,117.50606679916382
128,118.52605867385864
129,119.59105014801025
130,120.616042137146
131,121.66103386878967
132,122.70802545547485
133,123.70601749420166
134,124.70900964736938
135,125.72400164604187
136,126.76399326324463
137,127.77998518943787
138,128.81597709655762
139,129.85996866226196
140,130.91996026039124
141,131.97195196151733
142,132.9859437942505
143,133.94893622398376
144,134.93292832374573
145,135.95792031288147
146,137.02191185951233
147,138.0839033126831
148,139.14189505577087
149,140.22588634490967
150,141.2868778705597
151,142.3388695716858
152,143.4278609752655
153,144.53285217285156
154,145.62984347343445
155,146.68683505058289
156,147.760826587677
157,148.83181810379028
158,149.91080951690674
159,151.0048007965088
160,152.06079244613647
161,153.07578420639038
162,154.1197760105133
163,155.19476747512817
164,156.26175904273987
165,157.29975080490112
166,158.36874222755432
167,159.45173358917236
168,160.51572513580322
169,161.53171706199646
170,162.53970909118652
171,163.57470083236694
172,164.61969256401062
173,165.6476845741272
174,166.65867638587952
175,167.69166827201843
176,168.7576596736908
177,169.85265111923218
178,170.91164255142212
179,171.96663427352905
180,173.05362558364868
181,174.13761711120605
182,175.218608379364
183,176.2466003894806
184,177.24959230422974
185,178.26258420944214
186,179.2945761680603
187,180.35556769371033
188,181.42055916786194
189,182.43355107307434
190,183.37654376029968
191,184.35853576660156
192,185.39552760124207
193,186.4545192718506
194,187.52851057052612
195,188.58550238609314
196,189.61849403381348
197,190.65848588943481
198,191.70647740364075
199,192.7314693927765
200,193.76346111297607
201,194.83145260810852
202,195.90144419670105
203,196.9414358139038
204,198.017427444458
205,199.11541867256165
206,200.17141032218933
207,201.24540185928345
208,202.34639310836792
209,203.4473843574524
210,204.53737568855286
211,205.66436672210693
212,206.81335759162903
213,207.90634894371033
214,208.98234033584595
215,210.08533143997192
216,211.1863226890564
217,212.24631428718567
218,213.31430578231812
219,214.4262969493866
220,215.5392882823944
221,216.6362795829773
222,217.75427055358887
223,218.88526153564453
224,219.997252702713
225,221.05424451828003
226,222.09923601150513
227,223.17422747612
228,224.25821900367737
229,225.3302104473114
230,226.43320178985596
231,227.53519296646118
232,228.61918425559998
233,229.72217559814453
234,230.83116674423218
235,231.91215825080872
236,232.98714971542358
237,234.0891408920288
238,235.20313215255737
239,236.27612352371216
240,237.3461151123047
241,238.43610644340515
242,239.52909779548645
243,240.60608911514282
244,241.65808081626892
245,242.71007251739502
246,243.77706384658813
247,244.83805561065674
248,245.86904740333557
249,246.91603899002075
250,247.9950304031372
251,249.05202198028564
252,250.11301374435425
253,251.19900488853455
254,252.25799655914307
255,253.31998825073242
256,254.38797974586487
257,255.42797136306763
258,256.46096324920654
259,257.53695464134216
260,258.65294575691223
261,259.7769367694855
262,260.90592789649963
263,261.9829194545746
264,263.03791093826294
265,264.09690260887146
266,265.1708941459656
267,266.2538855075836
268,267.2988772392273
269,268.35186886787415
270,269.41886019706726
271,270.4888517856598
272,271.5298435688019
273,272.60283493995667
274,273.7008264064789
275,274.7808177471161
276,275.8548092842102
277,276.93380069732666
278,278.0247919559479
279,279.06578373908997
280,280.0557758808136
281,281.046767950058
282,282.05475997924805
283,283.08975172042847
284,284.12674355506897
285,285.17173528671265
286,286.2507266998291
287,287.35071778297424
288,288.4347093105316
289,289.4907009601593
290,290.5786921977997
291,291.67368364334106
292,292.77467489242554
293,293.853666305542
294,294.8776581287384
295,295.88565015792847
296,296.91364192962646
297,297.9596335887909
298,299.0026252269745
299,300.0166172981262
300,301.0536091327667
301,302.1096007823944
302,303.1785922050476
303,304.2375838756561
304,305.2865753173828
305,306.36056685447693
306,307.43455839157104
307,308.47855019569397
308,309.48854207992554
309,310.5095338821411
310,311.55152559280396
311,312.60151743888855
312,313.64450907707214
313,314.6505010128021
314,315.68349289894104
315,316.75748443603516
316,317.8624756336212
317,318.9614667892456
318,320.0244584083557
319,321.0884499549866
320,322.1624414920807
321,323.23043298721313
322,324.31742429733276
323,325.36841583251953
324,326.3954076766968
325,327.42539954185486
326,328.4833912849426
327,329.5563826560974
328,330.6303741931915
329,331.6733658313751
330,332.74535727500916
331,333.81934881210327
332,334.8953402042389
333,335.947331905365
334,336.9563238620758
335,337.9673159122467
336,339.0083076953888
337,340.0692992210388
338,341.11329078674316
339,342.16628241539
340,343.21727418899536
341,344.240266084671
342,345.2782578468323
343,346.3372495174408
344,347.41224098205566
345,348.45923256874084
346,349.4882242679596
347,350.5512158870697
348,351.62620735168457
349,352.6761989593506
350,353.7161908149719
351,354.7741823196411
352,355.8341739177704
353,356.8951654434204
354,357.9301574230194
355,358.96514916419983
356,360.0211408138275
357,361.07613229751587
358,362.139123916626
359,363.19011545181274
360,364.2261073589325
361,365.2760989665985
362,366.33309054374695
363,367.3790822029114
364,368.40507411956787
365,369.4030661582947
366,370.4310579299927
367,371.47204971313477
368,372.52404141426086
369,373.53703331947327
370,374.5140256881714
371,375.5080177783966
372,376.51300978660583
373,377.5280017852783
374,378.55699348449707
375,379.5559856891632
376,380.51797795295715
377,381.5059700012207
378,382.5149619579315
379,383.54395389556885
380,384.5989456176758
381,385.6749370098114
382,386.72592854499817
383,387.77592039108276
384,388.8219120502472
385,389.8629038333893
386,390.88389563560486
387,391.86688780784607
388,392.8548798561096
389,393.863872051239
390,394.89686369895935
391,395.941855430603
392,396.9628472328186
393,397.960839509964
394,398.9698314666748
395,399.9978232383728
396,401.0298149585724
397,402.07280683517456
398,403.0997986793518
399,404.10479068756104
400,405.1317825317383
401,406.1597743034363
402,407.17876625061035
403,408.16775822639465
404,409.1537504196167
405,410.1477425098419
406,411.14673471450806
407,412.1587266921997
408,413.1437187194824
409,414.1417109966278
410,415.1477029323578
411,416.16869473457336
412,417.17968678474426
413,418.2046785354614
414,419.22967052459717
415,420.26366233825684
416,421.30465388298035
417,422.3176460266113
418,423.3146381378174
419,424.3476297855377
420,425.3796217441559
421,426.41761350631714
422,427.43760538101196
423,428.41359758377075
424,429.3715898990631
425,430.34258222579956
426,431.3325743675232
427,432.31456661224365
428,433.3305585384369
429,434.3505504131317
430,435.3785421848297
431,436.3785343170166
432,437.39452624320984
433,438.4325180053711
434,439.4795095920563
435,440.52650141716003
436,441.5404932498932
437,442.56148529052734
438,443.5974769592285
439,444.64346861839294
440,445.6884603500366
441,446.679452419281
442,447.65244483947754
443,448.62243700027466
444,449.6084291934967
445,450.59642148017883
446,451.5714135169983
447,452.5394058227539
448,453.43039894104004
449,454.26639223098755
450,455.10238552093506
451,455.9633786678314
452,456.8793714046478
453,457.85136365890503
454,458.85035586357117
455,459.81734824180603
456,460.704341173172
457,461.5943341255188
458,462.49532675743103
459,463.39031982421875
460,464.2853126525879
461,465.2033052444458
462,466.1542978286743
463,467.1192901134491
464,468.06628251075745
465,469.0072751045227
466,469.91526794433594
467,470.75526118278503
468,471.60725450515747
469,472.47524762153625
470,473.31324100494385
471,474.1802339553833
472,475.0812268257141
473,475.9662199020386
474,476.8322129249573
475,477.7372057437897
476,478.647198677063
477,479.518191576004
478,480.43418431282043
479,481.33917713165283
480,482.2091703414917
481,483.123162984848
482,484.0411558151245
483,484.9131488800049
484,485.8211417198181
485,486.73313426971436
486,487.68112683296204
487,488.6551191806793
488,489.618111371994
489,490.56710386276245
490,491.46809673309326
491,492.3610897064209
492,493.2880823612213
493,494.23707485198975
494,495.17506742477417
495,496.05606031417847
496,496.95405316352844
497,497.8730459213257
498,498.8020384311676
499,499.70203137397766
500,500.59602427482605
501,501.536016702652
502,502.489009141922
503,503.42600178718567
504,504.3229947090149
505,505.2499873638153
506,506.18597984313965
507,507.11697244644165
508,508.01996541023254
509,508.9629578590393
510,509.91495013237
511,510.87294268608093
512,511.78493547439575
513,512.6889281272888
514,513.6239206790924
515,514.5479135513306
516,515.4769060611725
517,516.3558990955353
518,517.2628917694092
519,518.174884557724
520,519.0968773365021
521,519.9938702583313
522,520.8648633956909
523,521.7668561935425
524,522.6628489494324
525,523.5698418617249
526,524.4348349571228
527,525.3118278980255
528,526.2098207473755
529,527.1138136386871
530,528.0118064880371
531,528.8807995319366
532,529.7717926502228
533,530.6867852210999
534,531.625777721405
535,532.5797703266144
536,533.5417625904083
537,534.5167548656464
538,535.473747253418
539,536.4317395687103
540,537.3777320384979
541,538.2487251758575
542,539.0907185077667
543,539.9387118816376
544,540.810704946518
545,541.7536973953247
546,542.7046897411346
547,543.6936819553375
548,544.730673789978
549,545.7826654911041
550,546.8586568832397
551,547.927648305893
552,548.9586400985718
553,550.007631778717
554,551.0606234073639
555,552.090615272522
556,553.1086072921753
557,554.1545989513397
558,555.1885907649994
559,556.2235825061798
560,557.2975740432739
561,558.3765654563904
562,559.4565567970276
563,560.5455482006073
564,561.6065397262573
565,562.7005310058594
566,563.7855224609375
567,564.8505139350891
568,565.8955056667328
569,566.9664971828461
570,568.0644884109497
571,569.1934795379639
572,570.3194704055786
573,571.4344615936279
574,572.5494527816772
575,573.6404440402985
576,574.7304353713989
577,575.8494265079498
578,576.9694175720215
579,578.0914087295532
580,579.1814000606537
581,580.2343916893005
582,581.3423829078674
583,582.4663739204407
584,583.5953650474548
585,584.7083561420441
586,585.8203473091125
587,586.9173386096954
588,587.9803302288055
589,589.0583217144012
590,590.14231300354
591,591.2323043346405
592,592.3262956142426
593,593.3922872543335
594,594.4252791404724
595,595.4742708206177
596,596.54026222229
597,597.6192536354065
598,598.6752452850342
599,599.7072370052338
600,600.7642288208008
601,601.8492200374603
602,602.9262115955353
603,604.0062029361725
604,605.0731945037842
605,606.0991864204407
606,607.1681778430939
607,608.2291693687439
608,609.3011608123779
609,610.3811523914337
610,611.4551436901093
611,612.513135433197
612,613.5391273498535
613,614.5551192760468
614,615.5871109962463
615,616.6061029434204
616,617.6060948371887
617,618.6230869293213
618,619.674078464508
619,620.7470700740814
620,621.8070616722107
621,622.8300535678864
622,623.8710451126099
623,624.9220368862152
624,625.9670286178589
625,627.0380201339722
626,628.1010115146637
627,629.1320033073425
628,630.1699950695038
629,631.2069869041443
630,632.251978635788
631,633.2839703559875
632,634.318962097168
633,635.3509540557861
634,636.3629460334778
635,637.4069375991821
636,638.4919290542603
637,639.6169202327728
638,640.7269113063812
639,641.8159027099609
640,642.8708941936493
641,643.8328866958618
642,644.7328794002533
643,645.6398723125458
644,646.6158645153046
645,647.619856595993
646,648.647848367691
647,649.7018399238586
648,650.7708315849304
649,651.8388230800629
650,652.9058146476746
651,653.9508063793182
652,654.9947979450226
653,656.0347898006439
654,657.0807814598083
655,658.1217732429504
656,659.1777648925781
657,660.2487561702728
658,661.3237476348877
659,662.394739151001
660,663.4647307395935
661,664.5297222137451
662,665.5557141304016
663,666.5787060260773
664,667.6006979942322
665,668.6276898384094
666,669.6736814975739
667,670.7116732597351
668,671.7256650924683
669,672.7586569786072
670,673.8136484622955
671,674.8806400299072
672,675.9586315155029
673,677.030622959137
674,678.0636148452759
675,679.0986065864563
676,680.1035985946655
677,681.0725908279419
678,681.9645838737488
679,682.8635766506195
680,683.7915692329407
681,684.7965612411499
682,685.8235530853271
683,686.8555450439453
684,687.8725368976593
685,688.9025287628174
686,689.956520318985
687,691.0085120201111
688,692.056503534317
689,693.0664956569672
690,694.0214879512787
691,694.986480474472
692,695.9784724712372
693,696.9864645004272
694,698.0264563560486
695,699.0904479026794
696,700.1794390678406
697,701.2944302558899
698,702.4134213924408
699,703.4964127540588
700,704.5724041461945
701,705.6403958797455
702,706.7023873329163
703,707.775378704071
704,708.8533701896667
705,709.902361869812
706,710.9053540229797
707,711.8783462047577
708,712.8663384914398
709,713.8703303337097
710,714.8613226413727
711,715.8823144435883
712,716.9673058986664
713,718.085296869278
714,719.17928814888
715,720.2162799835205
716,721.2772715091705
717,722.3482630252838
718,723.4282546043396
719,724.507246017456
720,725.5382378101349
721,726.5782294273376
722,727.6462209224701
723,728.7332124710083
724,729.8292036056519
725,730.9221949577332
726,732.0051863193512
727,733.047178030014
728,734.038170337677
729,735.0521621704102
730,736.1031539440155
731,737.2021450996399
732,738.2951364517212
733,739.4151275157928
734,740.5581183433533
735,741.7151093482971
736,742.8770999908447
737,743.9850912094116
738,745.0270829200745
739,746.070074558258
740,747.0650668144226
741,748.0380589962006
742,749.0540509223938
743,750.0870428085327
744,751.0790348052979
745,752.056027173996
746,753.0630190372467
747,754.1000108718872
748,755.1340026855469
749,756.1879942417145
750,757.288985490799
751,758.3959767818451
752,759.5209677219391
753,760.5849595069885
754,761.6609508991241
755,762.7269423007965
756,763.8129336833954
757,764.9009251594543
758,765.9189169406891
759,766.9429090023041
760,767.9719007015228
761,769.0248923301697
762,770.0698840618134
763,771.125875711441
764,772.1868672370911
765,773.2508587837219
766,774.269850730896
767,775.297842502594
768,776.325834274292
769,777.3688261508942
770,778.4428174495697
771,779.4958093166351
772,780.4618015289307
773,781.4107940196991
774,782.3957860469818
775,783.3777782917023
776,784.3997702598572
777,785.4787616729736
778,786.5637531280518
779,787.6147446632385
780,788.5997369289398
781,789.571729183197
782,790.533721446991
783,791.4417142868042
784,792.375706911087
785,793.3986988067627
786,794.4816901683807
787,795.5356817245483
788,796.6506729125977
789,797.7736639976501
790,798.9096550941467
791,800.066645860672
792,801.2146368026733
793,802.378627538681
794,803.5436182022095
795,804.6676092147827
796,805.7636005878448
797,806.8355920314789
798,807.9185833930969
799,809.0225746631622
800,810.1435658931732
801,811.271556854248
802,812.3945479393005
803,813.5105390548706
804,814.6485300064087
805,815.8175206184387
806,817.0155112743378
807,818.1555020809174
808,819.286493062973
809,820.4364840984344
810,821.5904748439789
811,822.7244658470154
812,823.8164572715759
813,824.8874487876892
814,825.9854400157928
815,827.0974311828613
816,828.2224221229553
817,829.3384132385254
818,830.44140458107
819,831.6243951320648
820,832.8343856334686
821,834.0123763084412
822,835.1433672904968
823,836.2733583450317
824,837.4033493995667
825,838.5263404846191
826,839.6413314342499
827,840.7343227863312
828,841.8123142719269
829,842.8663058280945
830,843.9212975502014
831,845.0442886352539
832,846.1772797107697
833,847.3212704658508
834,848.4762613773346
835,849.6142523288727
836,850.7042436599731
837,851.7332353591919
838,852.7912271022797
839,853.8402187824249
840,854.8772106170654
841,855.8812024593353
842,856.8741946220398
843,857.8831865787506
844,858.8641788959503
845,859.7761716842651
846,860.7271640300751
847,861.7281560897827
848,862.7251482009888
849,863.7011404037476
850,864.6651327610016
851,865.6541249752045
852,866.6901166439056
853,867.7651081085205
854,868.857099533081
855,869.9310908317566
856,870.9810826778412
857,872.023074388504
858,873.0950658321381
859,874.192057132721
860,875.3180482387543
861,876.4260394573212
862,877.5290305614471
863,878.659021615982
864,879.7930126190186
865,880.9370036125183
866,882.067994594574
867,883.1919856071472
868,884.3389766216278
869,885.4949672222137
870,886.6299583911896
871,887.7249495983124
872,888.7609415054321
873,889.7909331321716
874,890.8429248332977
875,891.9169163703918
876,893.0259075164795
877,894.1018989086151
878,895.1448907852173
879,896.1968822479248
880,897.3208734989166
881,898.4668643474579
882,899.6028552055359
883,900.7068464756012
884,901.7728381156921
885,902.7918300628662
886,903.8278217315674
887,904.8988132476807
888,905.9848046302795
889,907.0757958889008
890,908.1417875289917
891,909.1657793521881
892,910.1477715969086
893,911.1437635421753
894,912.1747553348541
895,913.2427470684052
896,914.3407382965088
897,915.4457294940948
898,916.5437207221985
899,917.5937123298645
900,918.5987043380737
901,919.6416962146759
902,920.7066876888275
903,921.7806792259216
904,922.7756712436676
905,923.7196638584137
906,924.6896560192108
907,925.6516485214233
908,926.6296405792236
909,927.6466326713562
910,928.7146241664886
911,929.7976155281067
912,930.890606880188
913,931.9685981273651
914,933.0095899105072
915,934.0105819702148
916,935.0195739269257
917,936.0405659675598
918,937.076557636261
919,938.1365492343903
920,939.2345404624939
921,940.2995321750641
922,941.3285238742828
923,942.3815155029297
924,943.4375071525574
925,944.4994986057281
926,945.5644903182983
927,946.6194818019867
928,947.6564736366272
929,948.6574656963348
930,949.6674575805664
931,950.6884496212006
932,951.7294414043427
933,952.7884328365326
934,953.8584244251251
935,954.9164159297943
936,955.9444077014923
937,956.9933993816376
938,958.0723910331726
939,959.1313824653625
940,960.0903749465942
941,961.0323674678802
942,961.9933598041534
943,962.9233524799347
944,963.857344865799
945,964.8263373374939
946,965.8323292732239
947,966.8643209934235
948,967.9103128910065
949,968.9333045482635
950,969.9352967739105
951,970.9282886981964
952,971.945280790329
953,972.9832725524902
954,974.0212643146515
955,975.0652558803558
956,976.0892479419708
957,977.09423995018
958,978.1152317523956
959,979.1692233085632
960,980.2392148971558
961,981.3152062892914
962,982.3731980323792
963,983.4101896286011
964,984.4241816997528
965,985.460173368454
966,986.5131649971008
967,987.5841565132141
968,988.6521480083466
969,989.6851398944855
970,990.7121317386627
971,991.7791233062744
972,992.8831143379211
973,993.9941055774689
974,995.0640971660614
975,996.0970888137817
976,997.1230807304382
977,998.1670725345612
978,999.2160642147064
979,1000.2750556468964
980,1001.3040475845337
981,1002.300039768219
982,1003.3240315914154
983,1004.378023147583
984,1005.4710144996643
985,1006.5550057888031
986,1007.6149973869324
987,1008.648989200592
988,1009.7029807567596
989,1010.8019721508026
990,1011.9159631729126
991,1013.0319545269012
992,1014.1189458370209
993,1015.1639375686646
994,1016.1789293289185
995,1017.2139213085175
996,1018.2469129562378
997,1019.2179052829742
998,1020.1368980407715
999,1021.080890417099
1000,1022.0388829708099
1001,1022.9778754711151
1002,1023.9308679103851
1003,1024.9028601646423
1004,1025.90385222435
1005,1026.9478437900543
1006,1028.0128355026245
1007,1029.069827079773
1008,1030.1028187274933
1009,1031.1118109226227
1010,1032.133802652359
1011,1033.1757943630219
1012,1034.2457859516144
1013,1035.3337771892548
1014,1036.404768705368
1015,1037.4387605190277
1016,1038.4387526512146
1017,1039.4557445049286
1018,1040.49573636055
1019,1041.5907275676727
1020,1042.7017188072205
1021,1043.791710138321
1022,1044.8557016849518
1023,1045.9206931591034
1024,1047.012684583664
1025,1048.1366755962372
1026,1049.2596666812897
1027,1050.372657775879
1028,1051.4496493339539
1029,1052.4936408996582
1030,1053.5696325302124
1031,1054.6486239433289
1032,1055.7236154079437
1033,1056.7886068820953
1034,1057.822598695755
1035,1058.8275907039642
1036,1059.869582414627
1037,1060.9265739917755
1038,1061.9935655593872
1039,1063.0505571365356
1040,1064.0945489406586
1041,1065.1655404567719
1042,1066.2515318393707
1043,1067.339523077011
1044,1068.4225144386292
1045,1069.4825060367584
1046,1070.5214977264404
1047,1071.5864894390106
1048,1072.643481016159
1049,1073.6804728507996
1050,1074.6854648590088
1051,1075.6974568367004
1052,1076.7004487514496
1053,1077.7114408016205
1054,1078.7144327163696
1055,1079.7044248580933
1056,1080.6884171962738
1057,1081.6944091320038
1058,1082.7184009552002
1059,1083.7763924598694
1060,1084.8503839969635
1061,1085.9083757400513
1062,1086.9313673973083
1063,1087.9723591804504
1064,1089.0073509216309
1065,1090.0333428382874
1066,1091.0383348464966
1067,1091.9933273792267
1068,1092.8803203105927
1069,1093.7293136119843
1070,1094.575306892395
1071,1095.4282999038696
1072,1096.3042931556702
1073,1097.1862859725952
1074,1098.0222795009613
1075,1098.8272731304169
1076,1099.6332666873932
1077,1100.4342603683472
1078,1101.253253698349
1079,1102.1232469081879
1080,1103.0722393989563
1081,1104.0642313957214
1082,1105.0712234973907
1083,1106.0692155361176
1084,1107.0672075748444
1085,1108.0291998386383
1086,1108.9941923618317
1087,1109.9731845855713
1088,1110.9671766757965
1089,1111.9611687660217
1090,1112.9761607646942
1091,1114.0041525363922
1092,1115.0341444015503
1093,1116.0231363773346
1094,1117.0101284980774
1095,1118.0451204776764
1096,1119.1181118488312
1097,1120.2321031093597
1098,1121.3360941410065
1099,1122.4790852069855
1100,1123.6600759029388
1101,1124.820066690445
1102,1125.942057609558
1103,1127.0380489826202
1104,1128.1310403347015
1105,1129.2280316352844
1106,1130.3060231208801
1107,1131.3840143680573
1108,1132.4680058956146
1109,1133.5269973278046
1110,1134.5849890708923
1111,1135.662980556488
1112,1136.743971824646
1113,1137.7999634742737
1114,1138.8549551963806
1115,1139.9019467830658
1116,1140.875939130783
1117,1141.8939309120178
1118,1142.9309227466583
1119,1143.9389147758484
1120,1144.9249069690704
1121,1145.9058990478516
1122,1146.9528908729553
1123,1148.014882326126
1124,1149.003874540329
1125,1149.9558670520782
1126,1150.984858751297
1127,1152.050850391388
1128,1153.1148419380188
1129,1154.1878333091736
1130,1155.2178251743317
1131,1156.2398171424866
1132,1157.2768087387085
1133,1158.313800573349
1134,1159.3237924575806
1135,1160.3377845287323
1136,1161.377776145935
1137,1162.4377677440643
1138,1163.5097591876984
1139,1164.5617508888245
1140,1165.607742547989
1141,1166.6887340545654
1142,1167.7847254276276
1143,1168.885716676712
1144,1169.946708202362
1145,1170.979700088501
1146,1172.051691532135
1147,1173.148682832718
1148,1174.24267411232
1149,1175.3506653308868
1150,1176.4716563224792
1151,1177.5816476345062
1152,1178.6386392116547
1153,1179.6636309623718
1154,1180.7136225700378
1155,1181.7726142406464
1156,1182.881605386734
1157,1184.002596616745
1158,1185.0845880508423
1159,1186.1725792884827
1160,1187.2735705375671
1161,1188.381561756134
1162,1189.4595532417297
1163,1190.5105447769165
1164,1191.5905363559723
1165,1192.6975274085999
1166,1193.8015186786652
1167,1194.870510339737
1168,1195.931501865387
1169,1197.0244932174683
1170,1198.1264843940735
1171,1199.2554755210876
1172,1200.363466501236
1173,1201.429458141327
1174,1202.4514501094818
1175,1203.4524421691895
1176,1204.471433877945
1177,1205.4994258880615
1178,1206.5434174537659
1179,1207.6094090938568
1180,1208.6814005374908
1181,1209.7463920116425
1182,1210.7883837223053
1183,1211.8293755054474
1184,1212.921366930008
1185,1214.0163581371307
1186,1215.1173493862152
1187,1216.225340604782
1188,1217.291332244873
1189,1218.3023240566254
1190,1219.314316034317
1191,1220.3493077754974
1192,1221.3902995586395
1193,1222.4372913837433
1194,1223.5032827854156
1195,1224.5782742500305
1196,1225.6282658576965
1197,1226.6202580928802
1198,1227.5382506847382
1199,1228.4232437610626
1200,1229.3442363739014
1201,1230.3242287635803
1202,1231.3502204418182
1203,1232.406212091446
1204,1233.4602036476135
1205,1234.4821956157684
1206,1235.428188085556
1207,1236.3601806163788
1208,1237.3021731376648
1209,1238.2711656093597
1210,1239.2621576786041
1211,1240.2781496047974
1212,1241.299141407013
1213,1242.2931334972382
1214,1243.276125907898
1215,1244.2721178531647
1216,1245.2671098709106
1217,1246.2461020946503
1218,1247.2510941028595
1219,1248.2810859680176
1220,1249.329077720642
1221,1250.3920693397522
1222,1251.4280610084534
1223,1252.4520528316498
1224,1253.5090444087982
1225,1254.5820360183716
1226,1255.6620273590088
1227,1256.7400188446045
1228,1257.8010103702545
1229,1258.829002380371
1230,1259.867994070053
1231,1260.909985780716
1232,1261.9629774093628
1233,1263.022969007492
1234,1264.0919604301453
1235,1265.1599519252777
1236,1266.2019436359406
1237,1267.2129356861115
1238,1268.2409274578094
1239,1269.2619194984436
1240,1270.2849113941193
1241,1271.3019032478333
1242,1272.3408949375153
1243,1273.4038865566254
1244,1274.446878194809
1245,1275.4938700199127
1246,1276.5548615455627
1247,1277.6178529262543
1248,1278.6308450698853
1249,1279.6078372001648
1250,1280.584829568863
1251,1281.576821565628
1252,1282.5798137187958
1253,1283.5728056430817
1254,1284.5257980823517
1255,1285.468790769577
1256,1286.452782869339
1257,1287.4677748680115
1258,1288.535766363144
1259,1289.5947580337524
1260,1290.6087498664856
1261,1291.6407415866852
1262,1292.7157330513
1263,1293.803724527359
1264,1294.9017157554626
1265,1295.9677073955536
1266,1297.0046989917755
1267,1298.032691001892
1268,1299.036682844162
1269,1299.9976754188538
1270,1300.922667980194
1271,1301.8546605110168
1272,1302.7996530532837
1273,1303.7596454620361
1274,1304.7286376953125
1275,1305.6866300106049
1276,1306.6406226158142
1277,1307.6196148395538
1278,1308.6536066532135
1279,1309.705598115921
1280,1310.7585897445679
1281,1311.779581785202
1282,1312.7825736999512
1283,1313.782565832138
1284,1314.8005578517914
1285,1315.8085496425629
1286,1316.7935419082642
1287,1317.744534254074
1288,1318.6845269203186
1289,1319.6235194206238
1290,1320.5255122184753
1291,1321.4015052318573
1292,1322.2974982261658
1293,1323.2414906024933
1294,1324.1924831867218
1295,1325.1744754314423
1296,1326.1824672222137
1297,1327.1984593868256
1298,1328.1914513111115
1299,1329.170443534851
1300,1330.1544358730316
1301,1331.1134281158447
1302,1332.032420873642
1303,1332.9454135894775
1304,1333.858406305313
1305,1334.7773990631104
1306,1335.687391757965
1307,1336.5973846912384
1308,1337.5333771705627
1309,1338.4843695163727
1310,1339.425362110138
1311,1340.3743546009064
1312,1341.3363468647003
1313,1342.3093392848969
1314,1343.2933313846588
1315,1344.2523238658905
1316,1345.1703164577484
1317,1346.099309206009
1318,1347.0443017482758
1319,1348.0042939186096
1320,1348.980286359787
1321,1349.9572784900665
1322,1350.915270805359
1323,1351.881263256073
1324,1352.8502554893494
1325,1353.829247713089
1326,1354.7912402153015
1327,1355.7877321243286
1328,1356.7842242717743
1329,1357.7832164764404
1330,1358.7742085456848
1331,1359.7802004814148
1332,1360.7531926631927
1333,1361.7411849498749
1334,1362.7351770401
1335,1363.6981694698334
1336,1364.6351618766785
1337,1365.5941543579102
1338,1366.5211470127106
1339,1367.4191398620605
1340,1368.3381326198578
1341,1369.3061249256134
1342,1370.2421174049377
1343,1371.2061097621918
1344,1372.198101758957
1345,1373.1810941696167
1346,1374.1820862293243
1347,1375.1930780410767
1348,1376.1760702133179
1349,1377.0820631980896
1350,1377.9390563964844
1351,1378.7580497264862
1352,1379.5990431308746
1353,1380.4810361862183
1354,1381.411028623581
1355,1382.3480212688446
1356,1383.2690138816833
1357,1384.2120065689087
1358,1385.156998872757
1359,1386.1089913845062
1360,1387.056983947754
1361,1388.0039763450623
1362,1388.9719686508179
1363,1389.9509608745575
1364,1390.9379529953003
1365,1391.9339451789856
1366,1392.9149372577667
1367,1393.8899295330048
1368,1394.9049215316772
1369,1395.949913263321
1370,1396.988904953003
1371,1397.9808971881866
1372,1398.9628891944885
1373,1399.9628813266754
1374,1400.9518735408783
1375,1401.936865568161
1376,1402.9378576278687
1377,1403.9368498325348
1378,1404.9288418293
1379,1405.8908343315125
1380,1406.869826555252
1381,1407.8718185424805
1382,1408.8898105621338
1383,1409.8998024463654
1384,1410.900794506073
1385,1411.9267864227295
1386,1412.9637780189514
1387,1414.0147697925568
1388,1415.0437614917755
1389,1415.992753982544
1390,1416.923746585846
1391,1417.856739282608
1392,1418.8277316093445
1393,1419.8177237510681
1394,1420.79971575737
1395,1421.735708475113
1396,1422.6867008209229
1397,1423.6656930446625
1398,1424.6456854343414
1399,1425.6231775283813
1400,1426.6006698608398
1401,1427.519662618637
1402,1428.439655303955
1403,1429.3836476802826
1404,1430.3296401500702
1405,1431.2866325378418
1406,1432.2516248226166
1407,1433.1966173648834
1408,1434.1246099472046
1409,1435.0656025409698
1410,1436.0210950374603
1411,1436.9765872955322
1412,1437.9115800857544
1413,1438.8035728931427
1414,1439.6705660820007
1415,1440.5695588588715
1416,1441.5095512866974
1417,1442.4845435619354
1418,1443.4975357055664
1419,1444.5235273838043
1420,1445.557519197464
1421,1446.55451130867
1422,1447.5155036449432
1423,1448.480495929718
1424,1449.4644882678986
1425,1450.486479997635
1426,1451.5084719657898
1427,1452.5344638824463
1428,1453.546455860138
1429,1454.5344479084015
1430,1455.516440153122
1431,1456.4934322834015
1432,1457.4704246520996
1433,1458.4344170093536
1434,1459.3774094581604
1435,1460.3334019184113
1436,1461.3033940792084
1437,1462.276386499405
1438,1463.2713785171509
1439,1464.2523708343506
1440,1465.2183630466461
1441,1466.196355342865
1442,1467.193347454071
1443,1468.1723396778107
1444,1469.1563317775726
1445,1470.1243240833282
1446,1471.047316789627
1447,1471.9633095264435
1448,1472.8713023662567
1449,1473.796294927597
1450,1474.7302875518799
1451,1475.6612801551819
1452,1476.5912728309631
1453,1477.53426527977
1454,1478.5012576580048
1455,1479.4862496852875
1456,1480.479241847992
1457,1481.4532341957092
1458,1482.3842267990112
1459,1483.294219493866
1460,1484.2222120761871
1461,1485.1422047615051
1462,1486.0221979618073
1463,1486.8921909332275
1464,1487.7821838855743
1465,1488.69517660141
1466,1489.6081693172455
1467,1490.5741617679596
1468,1491.578153848648
1469,1492.582145690918
1470,1493.5961377620697
1471,1494.6061296463013
1472,1495.5991218090057
1473,1496.5631141662598
1474,1497.5361063480377
1475,1498.5260984897614
1476,1499.518090724945
1477,1500.513082742691
1478,1501.4980750083923
1479,1502.4710671901703
1480,1503.419059753418
1481,1504.3730521202087
1482,1505.3390443325043
1483,1506.331036567688
1484,1507.339028596878
1485,1508.306020975113
1486,1509.2460134029388
1487,1510.2100057601929
1488,1511.1979978084564
1489,1512.156990289688
1490,1513.1159827709198
1491,1514.0399754047394
1492,1514.9479682445526
1493,1515.8629608154297
1494,1516.7889535427094
1495,1517.7094461917877
1496,1518.629938840866
1497,1519.587931394577
1498,1520.5779235363007
1499,1521.5659155845642
1500,1522.554907798767
1501,1523.558899641037
1502,1524.5568919181824
1503,1525.5488839149475
1504,1526.5278761386871
1505,1527.4808685779572
1506,1528.3988614082336
1507,1529.303854227066
1508,1530.232846736908
1509,1531.205838918686
1510,1532.1998310089111
1511,1533.1898231506348
1512,1534.1538155078888
1513,1535.0768082141876
1514,1535.9718010425568
1515,1536.8277943134308
1516,1537.6547877788544
1517,1538.5057809352875
1518,1539.398773908615
1519,1540.3197665214539
1520,1541.2797589302063
1521,1542.2237515449524
1522,1543.147744178772
1523,1544.0597369670868
1524,1544.9867296218872
1525,1545.929722070694
1526,1546.8757145404816
1527,1547.7867074012756
1528,1548.6867001056671
1529,1549.5936930179596
1530,1550.5146856307983
1531,1551.4486782550812
1532,1552.36967086792
1533,1553.2996635437012
1534,1554.2466559410095
1535,1555.2096483707428
1536,1556.1526408195496
1537,1557.1066331863403
1538,1558.08762550354
1539,1559.060617685318
1540,1560.0206100940704
1541,1560.9906024932861
1542,1561.9735946655273
1543,1562.9275870323181
1544,1563.8375799655914
1545,1564.7025730609894
1546,1565.5625660419464
1547,1566.4525589942932
1548,1567.3925516605377
1549,1568.3785438537598
1550,1569.389535665512
1551,1570.4155275821686
1552,1571.450519323349
1553,1572.4885110855103
1554,1573.5055031776428
1555,1574.4894952774048
1556,1575.4624874591827
1557,1576.4364798069
1558,1577.4294719696045
1559,1578.4164640903473
1560,1579.384456396103
1561,1580.3424487113953
1562,1581.3114411830902
1563,1582.298433303833
1564,1583.2854254245758
1565,1584.2834174633026
1566,1585.2864096164703
1567,1586.2584018707275
1568,1587.2073941230774
1569,1588.1713864803314
1570,1589.1683785915375
1571,1590.1683707237244
1572,1591.171362876892
1573,1592.1163551807404
1574,1593.0103480815887
1575,1593.8783411979675
1576,1594.7713341712952
1577,1595.6953268051147
1578,1596.6753189563751
1579,1597.6913108825684
1580,1598.7113027572632
1581,1599.716295003891
1582,1600.7042870521545
1583,1601.681279182434
1584,1602.6582715511322
1585,1603.6542637348175
1586,1604.6822555065155
1587,1605.706247329712
1588,1606.714239358902
1589,1607.6822316646576
1590,1608.64222407341
1591,1609.6452159881592
1592,1610.65620803833
1593,1611.6851997375488
1594,1612.728191614151
1595,1613.7501833438873
1596,1614.7041759490967
1597,1615.6341683864594
1598,1616.5901608467102
1599,1617.557153224945
1600,1618.5291454792023
1601,1619.483137845993
1602,1620.42813038826
1603,1621.3871228694916
1604,1622.3511152267456
1605,1623.3351073265076
1606,1624.3130996227264
1607,1625.2600920200348
1608,1626.2110843658447
1609,1627.176076889038
1610,1628.1650688648224
1611,1629.1540610790253
1612,1630.1490530967712
1613,1631.1240453720093
1614,1632.0960376262665
1615,1633.067029953003
1616,1634.053022146225
1617,1635.0310144424438
1618,1635.9880068302155
1619,1636.9499990940094
1620,1637.9259915351868
1621,1638.9129836559296
1622,1639.883975982666
1623,1640.8489682674408
1624,1641.8349604606628
1625,1642.8279523849487
1626,1643.8169445991516
1627,1644.7619371414185
1628,1645.6939296722412
1629,1646.6239223480225
1630,1647.5829148292542
1631,1648.5529069900513
1632,1649.495899438858
1633,1650.4418919086456
1634,1651.3998844623566
1635,1652.326877117157
1636,1653.2538697719574
1637,1654.1598625183105
1638,1655.0418555736542
1639,1655.898848772049
1640,1656.7768416404724
1641,1657.6888344287872
1642,1658.5948271751404
1643,1659.4948201179504
1644,1660.4348125457764
1645,1661.402804851532
1646,1662.3867971897125
1647,1663.3657894134521
1648,1664.2877819538116
1649,1665.1467752456665
1650,1666.0057682991028
1651,1666.8597617149353
1652,1667.7287547588348
1653,1668.6327476501465
1654,1669.5627400875092
1655,1670.5157325267792
1656,1671.4427251815796
1657,1672.3977177143097
1658,1673.386709690094
1659,1674.3827018737793
1660,1675.3876938819885
1661,1676.413685798645
1662,1677.4466774463654
1663,1678.4446697235107
1664,1679.4106619358063
1665,1680.3736543655396
1666,1681.3536465168
1667,1682.3496387004852
1668,1683.3446307182312
1669,1684.3016231060028
1670,1685.2586154937744
1671,1686.2396078109741
1672,1687.2605996131897
1673,1688.3085913658142
1674,1689.348582983017
1675,1690.3515751361847
1676,1691.3325672149658
1677,1692.3245594501495
1678,1693.3215515613556
1679,1694.3225436210632
1680,1695.3375353813171
1681,1696.368527173996
1682,1697.3975191116333
1683,1698.3905112743378
1684,1699.3775033950806
1685,1700.3744955062866
1686,1701.3884873390198
1687,1702.3904793262482
1688,1703.3784716129303
1689,1704.3734636306763
1690,1705.4084553718567
1691,1706.4664471149445
1692,1707.5394384860992
1693,1708.5964300632477
1694,1709.6324219703674
1695,1710.6794135570526
1696,1711.7334053516388
1697,1712.7983968257904
1698,1713.8643882274628
1699,1714.882380247116
1700,1715.8833723068237
1701,1716.8973641395569
1702,1717.9113562107086
1703,1718.9003484249115
1704,1719.8873405456543
1705,1720.9023323059082
1706,1721.9553241729736
1707,1723.0043156147003
1708,1724.049307346344
1709,1725.0802991390228
1710,1726.1332907676697
1711,1727.1982824802399
1712,1728.2622740268707
1713,1729.3262655735016
1714,1730.3312575817108
1715,1731.2732501029968
1716,1732.2152426242828
1717,1733.1692349910736
1718,1734.1532270908356
1719,1735.1642191410065
1720,1736.1952109336853
1721,1737.2392027378082
1722,1738.259194612503
1723,1739.2571866512299
1724,1740.2801785469055
1725,1741.3221702575684
1726,1742.3601620197296
1727,1743.404153585434
1728,1744.459145307541
1729,1745.4881372451782
1730,1746.486129283905
1731,1747.4751212596893
1732,1748.467113494873
1733,1749.473105430603
1734,1750.4940974712372
1735,1751.5370891094208
1736,1752.586080789566
1737,1753.6170725822449
1738,1754.6130647659302
1739,1755.5910568237305
1740,1756.5770490169525
1741,1757.5770411491394
1742,1758.5940330028534
1743,1759.628024816513
1744,1760.6540167331696
1745,1761.625009059906
1746,1762.5630016326904
1747,1763.517993927002
1748,1764.5069861412048
1749,1765.533977985382
1750,1766.5629696846008
1751,1767.5939614772797
1752,1768.6019535064697
1753,1769.5829458236694
1754,1770.5569381713867
1755,1771.5519301891327
1756,1772.564922094345
1757,1773.5919139385223
1758,1774.6199057102203
1759,1775.6378977298737
1760,1776.6548895835876
1761,1777.6278820037842
1762,1778.5858743190765
1763,1779.5368666648865
1764,1780.5128588676453
1765,1781.5108511447906
1766,1782.4748435020447
1767,1783.3638362884521
1768,1784.2258296012878
1769,1785.104822397232
1770,1786.2718131542206
1771,1787.8138010501862
1772,1788.676794052124
1773,1789.5757870674133
1774,1790.5037796497345
1775,1791.449772119522
1776,1792.3927645683289
1777,1793.3437571525574
1778,1794.2717497348785
1779,1795.193742275238
1780,1796.12473487854
1781,1797.0737273693085
1782,1798.0487196445465
1783,1799.0607116222382
1784,1800.091703414917
1785,1801.1056954860687
1786,1802.1016874313354
1787,1803.0876796245575
1788,1804.0926716327667
1789,1805.132663488388
1790,1806.1566553115845
1791,1807.1906471252441
1792,1808.230638742447
1793,1809.2206308841705
1794,1810.2536227703094
1795,1811.3196144104004
1796,1812.3986058235168
1797,1813.4835970401764
1798,1814.5515885353088
1799,1815.6135802268982
1800,1816.6615719795227
1801,1817.7045636177063
1802,1818.7395553588867
1803,1819.75754737854
1804,1820.7595393657684
1805,1821.703531742096
1806,1822.636524438858
1807,1823.587516784668
1808,1824.5655090808868
1809,1825.5665011405945
1810,1826.5604932308197
1811,1827.5144855976105
1812,1828.4884779453278
1813,1829.4694702625275
1814,1830.448462486267
1815,1831.4184546470642
1816,1832.3924469947815
1817,1833.405438899994
1818,1834.4274308681488
1819,1835.4464225769043
1820,1836.4734144210815
1821,1837.504406452179
1822,1838.5333981513977
1823,1839.5653898715973
1824,1840.5923817157745
1825,1841.6113736629486
1826,1842.4253673553467
1827,1843.5873579978943
1828,1844.6063499450684
1829,1845.629341840744
1830,1846.6093339920044
1831,1847.5753264427185
1832,1848.577318429947
1833,1849.5973103046417
1834,1850.5843024253845
1835,1851.5422947406769
1836,1852.541286945343
1837,1853.5592787265778
1838,1854.558270931244
1839,1855.5402631759644
1840,1856.530255317688
1841,1857.5412471294403
1842,1858.5322394371033
1843,1859.5132315158844
1844,1860.5112235546112
1845,1861.5102157592773
1846,1862.5122077465057
1847,1863.4851999282837
1848,1864.459192276001
1849,1865.445184469223
1850,1866.431176662445
1851,1867.4441685676575
1852,1868.4271607398987
1853,1869.385153055191
1854,1870.352145433426
1855,1871.3391375541687
1856,1872.363129377365
1857,1873.3941214084625
1858,1874.4031133651733
1859,1875.432105064392
1860,1876.465096950531
1861,1877.5080885887146
1862,1878.5570802688599
1863,1879.5940721035004
1864,1880.595064163208
1865,1881.6070561408997
1866,1882.6330478191376
1867,1883.681039571762
1868,1884.723031282425
1869,1885.7790229320526
1870,1886.8320145606995
1871,1887.8550064563751
1872,1888.8559985160828
1873,1889.8679904937744
1874,1890.8879823684692
1875,1891.8609745502472
1876,1892.7979671955109
1877,1893.7499597072601
1878,1894.744951725006
1879,1895.7629437446594
1880,1896.7559356689453
1881,1897.7599277496338
1882,1898.7749197483063
1883,1899.781911611557
1884,1900.77090382576
1885,1901.7688958644867
1886,1902.7688879966736
1887,1903.7498803138733
1888,1904.7108726501465
1889,1905.6418652534485
1890,1906.585857629776
1891,1907.5358500480652
1892,1908.5098423957825
1893,1909.4908347129822
1894,1910.4468269348145
1895,1911.4158194065094
1896,1912.4138114452362
1897,1913.4198033809662
1898,1914.422795534134
1899,1915.4007875919342
1900,1916.3967797756195
1901,1917.422771692276
1902,1918.4587633609772
1903,1919.5037550926208
1904,1920.519747018814
1905,1921.5447387695312
1906,1922.5777306556702
1907,1923.5957226753235
1908,1924.574714899063
1909,1925.547707080841
1910,1926.5246994495392
1911,1927.5156915187836
1912,1928.4886837005615
1913,1929.4246764183044
1914,1930.326669216156
1915,1931.2496619224548
1916,1932.1986541748047
1917,1933.183646440506
1918,1934.1946384906769
1919,1935.1936304569244
1920,1936.1766226291656
1921,1937.1916146278381
1922,1938.2036066055298
1923,1939.1825988292694
1924,1940.1385912895203
1925,1941.0225841999054
1926,1941.8745775222778
1927,1942.7525703907013
1928,1943.6515634059906
1929,1944.5755560398102
1930,1945.5325484275818
1931,1946.4795408248901
1932,1947.413533449173
1933,1948.3605258464813
1934,1949.3125183582306
1935,1950.2785105705261
1936,1951.2305030822754
1937,1952.1524958610535
1938,1953.0564885139465
1939,1953.9884812831879
1940,1954.947473526001
1941,1955.9374656677246
1942,1956.9144580364227
1943,1957.9064500331879
1944,1958.9194419384003
1945,1959.9514338970184
1946,1960.977425813675
1947,1961.9824178218842
1948,1962.9854097366333
1949,1963.9954016208649
1950,1965.0113937854767
1951,1966.013385772705
1952,1966.9803779125214
1953,1967.9403703212738
1954,1968.9053628444672
1955,1969.8833549022675
1956,1970.8613471984863
1957,1971.8133397102356
1958,1972.7263324260712
1959,1973.6508250236511
1960,1974.575317621231
1961,1975.5743098258972
1962,1976.6263015270233
1963,1977.6822929382324
1964,1978.719284772873
1965,1979.7642765045166
1966,1980.8182680606842
1967,1981.8552598953247
1968,1982.8592519760132
1969,1983.844244003296
1970,1984.8352363109589
1971,1985.8352282047272
1972,1986.835220336914
1973,1987.8072125911713
1974,1988.7542049884796
1975,1989.714197397232
1976,1990.6841897964478
1977,1991.6711819171906
1978,1992.6501741409302
1979,1993.604166507721
1980,1994.537159204483
1981,1995.4861516952515
1982,1996.4771437644958
1983,1997.49613571167
1984,1998.5301275253296
1985,1999.5511193275452
1986,2000.5561113357544
1987,2001.5671033859253
1988,2002.5750954151154
1989,2003.5890872478485
1990,2004.5730793476105
1991,2005.544071674347
1992,2006.5280640125275
1993,2007.5330560207367
1994,2008.5450479984283
1995,2009.5780396461487
1996,2010.5900316238403
1997,2011.57102394104
1998,2012.5590159893036
1999,2013.572007894516
2000,2014.5929999351501
2001,2015.5969920158386
2002,2016.5619843006134
2003,2017.5199766159058
2004,2018.4909689426422
2005,2019.4769611358643
2006,2020.4899530410767
2007,2021.4979450702667
2008,2022.4749372005463
2009,2023.4519295692444
2010,2024.439921617508
2011,2025.4429137706757
2012,2026.4549057483673
2013,2027.44189786911
2014,2028.414890050888
2015,2029.3778824806213
2016,2030.3428747653961
2017,2031.3248670101166
2018,2032.3018591403961
2019,2033.248851776123
2020,2034.1848442554474
2021,2035.132836818695
2022,2036.096829175949
2023,2037.0798213481903
2024,2038.0328137874603
2025,2038.9728062152863
2026,2039.9297986030579
2027,2040.9167907238007
2028,2041.9197828769684
2029,2042.9267747402191
2030,2043.9007670879364
2031,2044.8607594966888
2032,2045.8197519779205
2033,2046.7707443237305
2034,2047.7137367725372
2035,2048.619729757309
2036,2049.4977226257324
2037,2050.404715538025
2038,2051.3457078933716
2039,2052.3367002010345
2040,2053.3346922397614
2041,2054.319684267044
2042,2055.3256764411926
2043,2056.3326683044434
2044,2057.3506603240967
2045,2058.352652311325
2046,2059.329644680023
2047,2060.3186366558075
2048,2061.3096289634705
2049,2062.2826211452484
2050,2063.251613378525
2051,2064.242605447769
2052,2065.243597507477
2053,2066.256589651108
2054,2067.2685816287994
2055,2068.267573595047
2056,2069.2635657787323
2057,2070.275557756424
2058,2071.302549600601
2059,2072.334541320801
2060,2073.3665330410004
2061,2074.3745250701904
2062,2075.364517211914
2063,2076.38950920105
2064,2077.411500930786
2065,2078.4404928684235
2066,2079.46448469162
2067,2080.4664766788483
2068,2081.433469057083
2069,2082.3934614658356
2070,2083.3554537296295
2071,2084.312446117401
2072,2085.2064390182495
2073,2086.08043217659
2074,2086.9904248714447
2075,2087.919417619705
2076,2088.906409740448
2077,2089.9184017181396
2078,2090.9503934383392
2079,2091.964385509491
2080,2092.9393775463104
2081,2093.86737036705
2082,2094.785362958908
2083,2095.7233555316925
2084,2096.6773478984833
2085,2097.6793398857117
2086,2098.7013318538666
2087,2099.7043240070343
2088,2100.7203159332275
2089,2101.753307580948
2090,2102.7952992916107
2091,2103.832291126251
2092,2104.8682827949524
2093,2105.8682749271393
2094,2106.87726688385
2095,2107.886258840561
2096,2108.902250766754
2097,2109.924242734909
2098,2110.955234527588
2099,2111.966226577759
2100,2112.9532186985016
2101,2113.947210788727
2102,2114.9592027664185
2103,2115.996194601059
2104,2117.0401861667633
2105,2118.0371782779694
2106,2119.008170604706
2107,2120.0001628398895
2108,2121.0171546936035
2109,2122.0451464653015
2110,2123.0751383304596
2111,2124.0701303482056
2112,2125.0781223773956
2113,2126.096114397049
2114,2127.1291060447693
2115,2128.1720979213715
2116,2129.202089548111
2117,2130.1890819072723
2118,2131.1690740585327
2119,2132.1690661907196
2120,2133.2060577869415
2121,2134.221049785614
2122,2135.160042285919
2123,2136.085035085678
2124,2137.0630271434784
2125,2138.069019317627
2126,2139.084011077881
2127,2140.0820031166077
2128,2141.047995567322
2129,2142.0349876880646
2130,2143.0339798927307
2131,2144.0269718170166
2132,2145.030963897705
2133,2146.028955936432
2134,2147.0019483566284
2135,2147.9439408779144
2136,2148.886933326721
2137,2149.854925632477
2138,2150.8389177322388
2139,2151.835909843445
2140,2152.809902191162
2141,2153.754894733429
2142,2154.705887079239
2143,2155.6838793754578
2144,2156.7098712921143
2145,2157.768862724304
2146,2158.813854455948
2147,2159.85284614563
2148,2160.91583776474
2149,2161.989829301834
2150,2163.050820827484
2151,2164.10081243515
2152,2165.128804206848
2153,2166.108796596527
2154,2167.060788869858
2155,2168.026781320572
2156,2169.011773586273
2157,2170.0107655525208
2158,2171.0317573547363
2159,2172.0587491989136
2160,2173.051741361618
2161,2174.0087337493896
2162,2174.9927258491516
2163,2176.0027179718018
2164,2177.037709712982
2165,2178.0397017002106
2166,2179.04469370842
2167,2180.068685770035
2168,2181.085677623749
2169,2182.096669435501
2170,2183.0816617012024
2171,2184.0766537189484
2172,2185.080645799637
2173,2186.1056377887726
2174,2187.1506295204163
2175,2188.2006211280823
2176,2189.212613105774
2177,2190.204605102539
2178,2191.207597255707
2179,2192.2115890979767
2180,2193.204581260681
2181,2194.193573474884
2182,2195.1615657806396
2183,2196.154557943344
2184,2197.1705498695374
2185,2198.188541650772
2186,2199.1825337409973
2187,2200.155526161194
2188,2201.1465182304382
2189,2202.1535103321075
2190,2203.174502134323
2191,2204.213493824005
2192,2205.216485977173
2193,2206.18647813797
2194,2207.1654703617096
2195,2208.1574625968933
2196,2209.15745472908
2197,2210.1704466342926
2198,2211.1554386615753
2199,2212.1404309272766
2200,2213.1384229660034
2201,2214.142415046692
2202,2215.138407230377
2203,2216.128399372101
2204,2217.139391183853
2205,2218.1883828639984
2206,2219.247374534607
2207,2220.3093659877777
2208,2221.3213579654694
2209,2222.3043501377106
2210,2223.2963423728943
2211,2224.2883343696594
2212,2225.2773265838623
2213,2226.2523188591003
2214,2227.244311094284
2215,2228.272302865982
2216,2229.3102946281433
2217,2230.320286512375
2218,2231.3202786445618
2219,2232.325270652771
2220,2233.339262485504
2221,2234.341254711151
2222,2235.316246986389
2223,2236.2502393722534
2224,2237.1832320690155
2225,2238.074224948883
2226,2238.925218105316
2227,2239.8192110061646
2228,2240.7552037239075
2229,2241.7581956386566
2230,2242.785187482834
2231,2243.804179430008
2232,2244.7851717472076
2233,2245.7311642169952
2234,2246.6751565933228
2235,2247.619149208069
2236,2248.5761415958405
2237,2249.5621337890625
2238,2250.536125898361
2239,2251.473118543625
2240,2252.390111207962
2241,2253.3221039772034
2242,2254.277096271515
2243,2255.285088300705
2244,2256.316080093384
2245,2257.3310720920563
2246,2258.3500640392303
2247,2259.3850557804108
2248,2260.432047367096
2249,2261.5000388622284
2250,2262.5520305633545
2251,2263.5520226955414
2252,2264.50101518631
2253,2265.446007490158
2254,2266.401000022888
2255,2267.373992204666
2256,2268.3759841918945
2257,2269.3789763450623
2258,2270.3399686813354
2259,2271.290961265564
2260,2272.2709534168243
2261,2273.2989451885223
2262,2274.3449368476868
2263,2275.405928373337
2264,2276.4809198379517
2265,2277.5529115200043
2266,2278.627902984619
2267,2279.6768946647644
2268,2280.684886455536
2269,2281.6858785152435
2270,2282.689870595932
2271,2283.720862388611
2272,2284.750854253769
2273,2285.739846467972
2274,2286.722838640213
2275,2287.741330385208
2276,2288.759822368622
2277,2289.8398139476776
2278,2290.947804927826
2279,2292.007796525955
2280,2293.0377883911133
2281,2294.096780061722
2282,2295.1827714443207
2283,2296.2807626724243
2284,2297.381753921509
2285,2298.4497454166412
2286,2299.493737220764
2287,2300.5347290039062
2288,2301.5577206611633
2289,2302.5237131118774
2290,2303.433705806732
2291,2304.3746984004974
2292,2305.345690727234
2293,2306.3546826839447
2294,2307.3626747131348
2295,2308.3886666297913
2296,2309.4356582164764
2297,2310.497649669647
2298,2311.555641412735
2299,2312.6126329898834
2300,2313.6536247730255
2301,2314.677616596222
2302,2315.660608768463
2303,2316.655600786209
2304,2317.646593093872
2305,2318.642585039139
2306,2319.608577489853
2307,2320.5625698566437
2308,2321.5165622234344
2309,2322.442554950714
2310,2323.3695476055145
2311,2324.3195400238037
2312,2325.2545325756073
2313,2326.1815252304077
2314,2327.1185178756714
2315,2328.084510087967
2316,2329.037502527237
2317,2329.989495038986
2318,2330.962487220764
2319,2331.9394795894623
2320,2332.879472017288
2321,2333.8014647960663
2322,2334.728457212448
2323,2335.654449939728
2324,2336.582442522049
2325,2337.4944353103638
2326,2338.422427892685
2327,2339.3594205379486
2328,2340.300413131714
2329,2341.225405693054
2330,2342.149398326874
2331,2343.090390920639
2332,2344.024383544922
2333,2344.9813759326935
2334,2345.927368402481
2335,2346.8903608322144
2336,2347.8263533115387
2337,2348.7713458538055
2338,2349.7103383541107
2339,2350.6503307819366
2340,2351.5923233032227
2341,2352.5593156814575
2342,2353.5353078842163
2343,2354.5063002109528
2344,2355.450292825699
2345,2356.3772854804993
2346,2357.309278011322
2347,2358.2312705516815
2348,2359.12726354599
2349,2359.9012575149536
2350,2360.944249153137
2351,2361.87824177742
2352,2362.8272342681885
2353,2363.771226644516
2354,2364.6982192993164
2355,2365.652211666107
2356,2366.619204044342
2357,2367.595196247101
2358,2368.5181889533997
2359,2369.3831820487976
2360,2370.2611751556396
2361,2371.1901676654816
2362,2372.169159889221
2363,2373.1621520519257
2364,2374.147144317627
2365,2375.1651360988617
2366,2376.194128036499
2367,2377.2301197052
2368,2378.252111673355
2369,2379.239103794098
2370,2380.2080960273743
2371,2381.1830883026123
2372,2382.1740806102753
2373,2383.164072751999
2374,2384.1180651187897
2375,2385.007057905197
2376,2385.8620512485504
2377,2386.730044364929
2378,2387.628037214279
2379,2388.543030023575
2380,2389.4870223999023
2381,2390.455014705658
2382,2391.4360070228577
2383,2392.4199991226196
2384,2393.380991458893
2385,2394.341983795166
2386,2395.2469766139984
2387,2396.119969844818
2388,2397.0169625282288
2389,2397.915955543518
2390,2398.8319482803345
2391,2399.778940677643
2392,2400.7709329128265
2393,2401.781924724579
2394,2402.775916814804
2395,2403.7879087924957
2396,2404.8159005641937
2397,2405.8598923683167
2398,2406.899884223938
2399,2407.9018762111664
2400,2408.900868177414
2401,2409.9028601646423
2402,2410.9018523693085
2403,2411.8638446331024
2404,2412.792837381363
2405,2413.7178299427032
2406,2414.643822669983
2407,2415.585815191269
2408,2416.533807516098
2409,2417.4408004283905
2410,2418.321793317795
2411,2419.229786157608
2412,2420.187778711319
2413,2421.1947705745697
2414,2422.2037625312805
2415,2423.1787548065186
2416,2424.345745563507
2417,2425.1077394485474
2418,2426.0687317848206
2419,2427.0247242450714
2420,2427.956716775894
2421,2428.857709646225
2422,2429.771702528
2423,2430.711694955826
2424,2431.6686873435974
2425,2432.6376798152924
2426,2433.602672100067
2427,2434.5816643238068
2428,2435.5936563014984
2429,2436.6046481132507
2430,2437.608640193939
2431,2438.6376321315765
2432,2439.671623945236
2433,2440.7166154384613
2434,2441.7576072216034
2435,2442.8095989227295
2436,2443.876590490341
2437,2444.938581943512
2438,2445.991573572159
2439,2447.0255653858185
2440,2448.050557374954
2441,2449.068549156189
2442,2450.0855412483215
2443,2451.0685334205627
2444,2451.98352599144
2445,2452.8985188007355
2446,2453.8045115470886
2447,2454.720504283905
2448,2455.6254971027374
2449,2456.5034902095795
2450,2457.435482740402
2451,2458.435474872589
2452,2459.469466686249
2453,2460.579457759857
2454,2461.6854491233826
2455,2462.7884402275085
2456,2463.864431619644
2457,2464.9184234142303
2458,2465.95241522789
2459,2466.978406906128
2460,2468.000398874283
2461,2469.0223908424377
2462,2470.0303826332092
2463,2471.042374610901
2464,2472.052366733551
2465,2473.0153589248657
2466,2473.9623515605927
2467,2474.9303438663483
2468,2475.8903362751007
2469,2476.824328660965
2470,2477.7333216667175
2471,2478.6603140830994
2472,2479.610306739807
2473,2480.551299095154
2474,2481.527291536331
2475,2482.5412833690643
2476,2483.551275253296
2477,2484.561267375946
2478,2485.590259075165
2479,2486.5812513828278
2480,2487.5692434310913
2481,2488.557235479355
2482,2489.5237278938293
2483,2490.490220308304
2484,2491.443212747574
2485,2492.3562054634094
2486,2493.2725315093994
2487,2494.1888575553894
2488,2495.1051836013794
2489,2495.973176717758
2490,2496.8531696796417
2491,2497.7561626434326
2492,2498.6531553268433
2493,2499.5521483421326
2494,2500.49814081192
2495,2501.4901328086853
2496,2502.471125125885
2497,2503.4841170310974
2498,2504.5021090507507
2499,2505.5121009349823
2500,2506.5250928401947
2501,2507.529084920883
2502,2508.5500767230988
2503,2509.5720686912537
2504,2510.5730607509613
2505,2511.5870525836945
2506,2512.6200444698334
2507,2513.6310365200043
2508,2514.651028394699
2509,2515.6630203723907
2510,2516.652012348175
2511,2517.6480045318604
2512,2518.6329967975616
2513,2519.58198928833
2514,2520.535981655121
2515,2521.521973848343
2516,2522.569965362549
2517,2523.601957321167
2518,2524.6469490528107
2519,2525.698940515518
2520,2526.7169325351715
2521,2527.750924348831
2522,2528.7829160690308
2523,2529.746908426285
2524,2530.63490152359
2525,2531.474894762039
2526,2532.3058881759644
2527,2533.174881219864
2528,2534.0708742141724
2529,2534.9578671455383
2530,2535.7898604869843
2531,2536.6568536758423
2532,2537.586846113205
2533,2538.5598385334015
2534,2539.5538306236267
2535,2540.5508227348328
2536,2541.552814722061
2537,2542.5558066368103
2538,2543.550798892975
2539,2544.5607907772064
2540,2545.5797827243805
2541,2546.602774620056
2542,2547.625766515732
2543,2548.630758523941
2544,2549.650750398636
2545,2550.6607422828674
2546,2551.661734342575
2547,2552.6217267513275
2548,2553.547719478607
2549,2554.500711917877
2550,2555.4837040901184
2551,2556.4696962833405
2552,2557.4696881771088
2553,2558.4866802692413
2554,2559.4946722984314
2555,2560.47066450119
2556,2561.4416568279266
2557,2562.4506487846375
2558,2563.4696407318115
2559,2564.4976325035095
2560,2565.521624326706
2561,2566.529616355896
2562,2567.534608364105
2563,2568.5386004447937
2564,2569.5445923805237
2565,2570.5455844402313
2566,2571.5415766239166
2567,2572.5455684661865
2568,2573.505560874939
2569,2574.4535534381866
2570,2575.425545692444
2571,2576.4235377311707
2572,2577.397530078888
2573,2578.3715221881866
2574,2579.355014562607
2575,2580.3385066986084
2576,2581.3214988708496
2577,2582.289491176605
2578,2583.2804832458496
2579,2584.2944753170013
2580,2585.3024673461914
2581,2586.287459373474
2582,2587.2614517211914
2583,2588.241443872452
2584,2589.2424359321594
2585,2590.2514278888702
2586,2591.2564198970795
2587,2592.2334122657776
2588,2593.227404356003
2589,2594.202396631241
2590,2595.177388906479
2591,2596.1463811397552
2592,2597.1213734149933
2593,2598.076365709305
2594,2598.970358610153
2595,2599.8973512649536
2596,2600.8513436317444
2597,2601.8263359069824
2598,2602.8003282546997
2599,2603.776820421219
2600,2604.7533128261566
2601,2605.7283051013947
2602,2606.6812975406647
2603,2607.6302897930145
2604,2608.578282356262
2605,2609.515275001526
2606,2610.4492676258087
2607,2611.372260093689
2608,2612.286252975464
2609,2613.20024561882
2610,2614.1222383975983
2611,2615.0692307949066
2612,2616.0172233581543
2613,2616.949215888977
2614,2617.8902084827423
2615,2618.856200695038
2616,2619.8401930332184
2617,2620.8221850395203
2618,2621.7511777877808
2619,2622.6771705150604
2620,2623.6261627674103
2621,2624.599155187607
2622,2625.5671474933624
2623,2626.5091400146484
2624,2627.442132472992
2625,2628.384124994278
2626,2629.340117454529
2627,2630.315109729767
2628,2631.2581021785736
2629,2632.2170946598053
2630,2633.1880869865417
2631,2634.19007897377
2632,2635.1930708885193
2633,2636.1950631141663
2634,2637.196055173874
2635,2638.212047100067
2636,2639.2340388298035
2637,2640.2110311985016
2638,2641.1760234832764
2639,2642.1500158309937
2640,2643.142007827759
2641,2644.1669998168945
2642,2645.1629917621613
2643,2646.105984210968
2644,2647.0459768772125
2645,2648.014969110489
2646,2648.988961458206
2647,2649.931953907013
2648,2650.856946706772
2649,2651.7989389896393
2650,2652.7479314804077
2651,2653.68092417717
2652,2654.6039168834686
2653,2655.5379095077515
2654,2656.494901895523
2655,2657.4518942832947
2656,2658.398886680603
2657,2659.351879119873
2658,2660.3258714675903
2659,2661.3168635368347
2660,2662.3278555870056
2661,2663.357847213745
2662,2664.3618392944336
2663,2665.3848311901093
2664,2666.4248230457306
2665,2667.470814704895
2666,2668.489806652069
2667,2669.504798412323
2668,2670.5187904834747
2669,2671.534782409668
2670,2672.5347743034363
2671,2673.523766517639
2672,2674.5197587013245
2673,2675.530750513077
2674,2676.551742553711
2675,2677.568734407425
2676,2678.598726272583
2677,2679.6087181568146
2678,2680.5977103710175
2679,2681.599702358246
2680,2682.6236941814423
2681,2683.659686088562
2682,2684.68767786026
2683,2685.6606702804565
2684,2686.635662317276
2685,2687.626654624939
2686,2688.610646724701
2687,2689.594638824463
2688,2690.549631357193
2689,2691.5086238384247
2690,2692.4576160907745
2691,2693.4276084899902
2692,2694.4246006011963
2693,2695.439592599869
2694,2696.433584690094
2695,2697.3365774154663
2696,2698.2455701828003
2697,2699.1845626831055
2698,2700.160555124283
2699,2701.1625471115112
2700,2702.1785390377045
2701,2703.1955308914185
2702,2704.177523136139
2703,2705.1465153694153
2704,2706.1325075626373
2705,2707.132499694824
2706,2708.1354916095734
2707,2709.130483865738
2708,2710.156475543976
2709,2711.1984672546387
2710,2712.2324590682983
2711,2713.271450996399
2712,2714.3234424591064
2713,2715.385434150696
2714,2716.445425748825
2715,2717.5104172229767
2716,2718.546408891678
2717,2719.578400850296
2718,2720.6123926639557
2719,2721.6623842716217
2720,2722.711375951767
2721,2723.7433676719666
2722,2724.7403597831726
2723,2725.7173521518707
2724,2726.7098441123962
2725,2727.7023363113403
2726,2728.7273280620575
2727,2729.74232006073
2728,2730.7223122119904
2729,2731.712304353714
2730,2732.728296279907
2731,2733.7492883205414
2732,2734.762280225754
2733,2735.747272491455
2734,2736.742264509201
2735,2737.749256372452
2736,2738.769248485565
2737,2739.8022401332855
2738,2740.8272321224213
2739,2741.8102242946625
2740,2742.7832164764404
2741,2743.759208679199
2742,2744.7642006874084
2743,2745.7731926441193
2744,2746.821184396744
2745,2747.8791761398315
2746,2748.8881680965424
2747,2749.8921599388123
2748,2750.904151916504
2749,2751.9431438446045
2750,2752.998135328293
2751,2754.0101273059845
2752,2755.012119293213
2753,2756.0161113739014
2754,2757.0151035785675
2755,2758.0110955238342
2756,2759.0020875930786
2757,2759.9690799713135
2758,2760.851073026657
2759,2761.740066051483
2760,2762.6680586338043
2761,2763.6210510730743
2762,2764.5490436553955
2763,2765.4790363311768
2764,2766.429028749466
2765,2767.4170207977295
2766,2768.4250128269196
2767,2769.4110050201416
2768,2770.3779973983765
2769,2771.3449895381927
2770,2772.341981649399
2771,2773.3679735660553
2772,2774.4229652881622
2773,2775.520956516266
2774,2776.5639481544495
2775,2777.5959401130676
2776,2778.6489317417145
2777,2779.7079231739044
2778,2780.7409150600433
2779,2781.739907026291
2780,2782.752899169922
2781,2783.7938907146454
2782,2784.849882364273
2783,2785.9258737564087
2784,2787.010865211487
2785,2788.0878567695618
2786,2789.147848367691
2787,2790.2268397808075
2788,2791.31983089447
2789,2792.4238221645355
2790,2793.5258135795593
2791,2794.5758051872253
2792,2795.59379696846
2793,2796.6227889060974
2794,2797.651780605316
2795,2798.7117722034454
2796,2799.709764480591
2797,2800.720756292343
2798,2801.7667479515076
2799,2802.839739561081
2800,2803.9497306346893
2801,2805.072721719742
2802,2806.177712917328
2803,2807.231704711914
2804,2808.270696401596
2805,2809.298688173294
2806,2810.319680213928
2807,2811.3386719226837
2808,2812.358664035797
2809,2813.3836557865143
2810,2814.3806478977203
2811,2815.3526401519775
2812,2816.3146324157715
2813,2817.265625
2814,2818.207617521286
2815,2819.1766097545624
2816,2820.1816017627716
2817,2821.164593935013
2818,2822.144586086273
2819,2823.124578475952
2820,2824.130570411682
2821,2825.1545622348785
2822,2826.1515543460846
2823,2827.7595415115356
2824,2828.9335322380066
2825,2829.9525241851807
2826,2830.946516275406
2827,2831.9455082416534
2828,2832.9565002918243
2829,2833.9744923114777
2830,2834.998484134674
2831,2836.0004761219025
2832,2836.979468345642
2833,2837.976460456848
2834,2838.9534525871277
2835,2839.882445335388
2836,2840.7854380607605
2837,2841.6259315013885
2838,2842.466424703598
2839,2843.3704175949097
2840,2844.29541015625
2841,2845.217402935028
2842,2846.1133959293365
2843,2847.0393884181976
2844,2847.9983808994293
2845,2848.95237326622
2846,2849.900365829468
2847,2850.842358350754
2848,2851.762351036072
2849,2852.688343524933
2850,2853.6113362312317
2851,2854.551328897476
2852,2855.483321428299
2853,2856.3843142986298
2854,2857.2853071689606
2855,2858.198299884796
2856,2859.10529255867
2857,2859.9902856349945
2858,2860.8662786483765
2859,2861.7632715702057
2860,2862.6842641830444
2861,2863.6372566223145
2862,2864.577249288559
2863,2865.5202417373657
2864,2866.5052337646484
2865,2867.5292258262634
2866,2868.5772173404694
2867,2869.6152091026306
2868,2870.6372010707855
2869,2871.672192811966
2870,2872.699184656143
2871,2873.6961767673492
2872,2874.677169084549
2873,2875.647161245346
2874,2876.591153860092
2875,2877.4951465129852
2876,2878.357139825821
2877,2879.2401328086853
2878,2880.15012550354
2879,2881.104117870331
2880,2882.0841102600098
2881,2883.0361025333405
2882,2884.026094675064
2883,2885.0490865707397
2884,2886.087078332901
2885,2887.1360700130463
2886,2888.2070615291595
2887,2889.277053117752
2888,2890.3010449409485
2889,2891.3150367736816
2890,2892.3510286808014
2891,2893.4100201129913
2892,2894.457011938095
2893,2895.4820036888123
2894,2896.4839956760406
2895,2897.479987859726
2896,2898.5199797153473
2897,2899.572971343994
2898,2900.6309628486633
2899,2901.6609547138214
2900,2902.659946680069
2901,2903.702938556671
2902,2904.7689299583435
2903,2905.839921474457
2904,2906.90891289711
2905,2907.974904537201
2906,2909.021896123886
2907,2910.0758879184723
2908,2911.112879514694
2909,2912.13787150383
2910,2913.1308636665344
2911,2914.095855951309
2912,2915.068848133087
2913,2916.043840408325
2914,2917.0098328590393
2915,2917.9258255958557
2916,2918.869318008423
2917,2919.81281042099
2918,2920.7858028411865
2919,2921.7337951660156
2920,2922.6757876873016
2921,2923.6437799930573
2922,2924.6287722587585
2923,2925.641764163971
2924,2926.6127564907074
2925,2927.600748538971
2926,2928.6077406406403
2927,2929.618732690811
2928,2930.6152245998383
2929,2931.611716747284
2930,2932.508709669113
2931,2933.4117023944855
2932,2934.3636949062347
2933,2935.3276872634888
2934,2936.318679332733
2935,2937.298671722412
2936,2938.263664007187
2937,2939.2296562194824
2938,2940.188648700714
2939,2941.164640903473
2940,2942.1346333026886
2941,2943.0966255664825
2942,2944.045618057251
2943,2944.967610836029
2944,2945.9196031093597
2945,2946.893595457077
2946,2947.8845875263214
2947,2948.907579421997
2948,2949.95157122612
2949,2950.9975628852844
2950,2952.0445544719696
2951,2953.0765464305878
2952,2954.1055381298065
2953,2955.139529943466
2954,2956.1855216026306
2955,2957.214513540268
2956,2958.208505630493
2957,2959.2324974536896
2958,2960.256489276886
2959,2961.272481203079
2960,2962.2414734363556
2961,2963.235465526581
2962,2964.2584574222565
2963,2965.284449338913
2964,2966.350440979004
2965,2967.4264323711395
2966,2968.452424287796
2967,2969.488415956497
2968,2970.4174087047577
2969,2971.3634011745453
2970,2972.317393541336
2971,2973.254385948181
2972,2974.2203783988953
2973,2975.2133705615997
2974,2976.199362754822
2975,2977.19935464859
2976,2978.188346862793
2977,2979.205338716507
2978,2980.216330766678
2979,2981.190323114395
2980,2982.174315214157
2981,2983.129307746887
2982,2984.1152997016907
2983,2985.0902919769287
2984,2986.006284713745
2985,2986.9682772159576
2986,2987.957269191742
2987,2988.9692611694336
2988,2990.0212528705597
2989,2991.0932443141937
2990,2992.1462359428406
2991,2993.228227376938
2992,2994.2982189655304
2993,2995.3262107372284
2994,2996.3642024993896
2995,2997.4061942100525
2996,2998.46018576622
2997,2999.515177488327
2998,3000.556169271469
2999,3001.5551612377167
3000,3002.5521533489227
3001,3003.5661454200745
3002,3004.5921370983124
3003,3005.6081290245056
3004,3006.6531207561493
3005,3007.723112344742
3006,3008.7691040039062
3007,3009.7990958690643
3008,3010.844087600708
3009,3011.8660793304443
3010,3012.869071483612
3011,3013.877063512802
3012,3014.8760554790497
3013,3015.8520476818085
3014,3016.853039741516
3015,3017.864031791687
3016,3018.8770236968994
3017,3019.879015684128
3018,3020.884007692337
3019,3021.894999742508
3020,3022.8769919872284
3021,3023.833984375
3022,3024.805976629257
3023,3025.8099687099457
3024,3026.8439605236053
3025,3027.897952079773
3026,3028.9189438819885
3027,3029.9269359111786
3028,3030.9499278068542
3029,3031.9869196414948
3030,3033.0189113616943
3031,3034.0259034633636
3032,3035.050895214081
3033,3036.049887418747
3034,3037.0168795585632
3035,3038.0148718357086
3036,3039.0288636684418
3037,3040.0438556671143
3038,3041.0688474178314
3039,3042.1068391799927
3040,3043.155830860138
3041,3044.1738228797913
3042,3045.177814722061
3043,3046.189806699753
3044,3047.241798400879
3045,3048.3067898750305
3046,3049.3587815761566
3047,3050.3897733688354
3048,3051.4217653274536
3049,3052.4557571411133
3050,3053.443749189377
3051,3054.4437413215637
3052,3055.3857338428497
3053,3056.3097264766693
3054,3057.2267191410065
3055,3058.0997121334076
3056,3058.973705291748
3057,3059.8866980075836
3058,3060.8486902713776
3059,3061.8206827640533
3060,3062.802674770355
3061,3063.772667169571
3062,3064.7516593933105
3063,3065.7456514835358
3064,3066.750643491745
3065,3067.7756354808807
3066,3068.810627222061
3067,3069.8346190452576
3068,3070.835611104965
3069,3071.8166031837463
3070,3072.8135952949524
3071,3073.8455872535706
3072,3074.880578994751
3073,3075.9365706443787
3074,3077.0425617694855
3075,3078.146553039551
3076,3079.239544391632
3077,3080.3045358657837
3078,3081.395527124405
3079,3082.4975185394287
3080,3083.5925097465515
3081,3084.6475014686584
3082,3085.676493167877
3083,3086.677485227585
3084,3087.575478076935
3085,3088.4444711208344
3086,3089.3644638061523
3087,3090.303456544876
3088,3091.2814486026764
3089,3092.3024406433105
3090,3093.337432384491
3091,3094.2844247817993
3092,3095.175417661667
3093,3096.0794105529785
3094,3097.0294029712677
3095,3098.053394794464
3096,3099.1013865470886
3097,3100.1663780212402
3098,3101.222369670868
3099,3102.2893612384796
3100,3103.358352661133
3101,3104.4253442287445
3102,3105.5003356933594
3103,3106.5743272304535
3104,3107.65331864357
3105,3108.739310026169
3106,3109.8313014507294
3107,3110.9172928333282
3108,3111.981284379959
3109,3113.040275812149
3110,3114.126267194748
3111,3115.2492582798004
3112,3116.3622493743896
3113,3117.4342410564423
3114,3118.476232767105
3115,3119.5562241077423
3116,3120.653215408325
3117,3121.7672066688538
3118,3122.84619808197
3119,3123.9461891651154
3120,3124.991180896759
3121,3126.023172855377
3122,3127.0571644306183
3123,3128.0811564922333
3124,3129.093148469925
3125,3130.077140569687
3126,3131.0571327209473
3127,3132.0451250076294
3128,3133.0381169319153
3129,3134.052109003067
3130,3135.0461010932922
3131,3136.0480930805206
3132,3137.054085254669
3133,3138.0650770664215
3134,3139.0700690746307
3135,3140.108060836792
3136,3141.1440527439117
3137,3142.14604473114
3138,3143.169036626816
3139,3144.2110283374786
3140,3145.2530200481415
3141,3146.274011850357
3142,3147.2690041065216
3143,3148.191996574402
3144,3149.1009895801544
3145,3150.0399820804596
3146,3151.0299742221832
3147,3152.0599658489227
3148,3153.1099576950073
3149,3154.1569492816925
3150,3155.180941104889
3151,3156.2269327640533
3152,3157.284924507141
3153,3158.3399159908295
3154,3159.37690782547
3155,3160.420899629593
3156,3161.4618911743164
3157,3162.5058829784393
3158,3163.5558745861053
3159,3164.6098663806915
3160,3165.6718578338623
3161,3166.691849708557
3162,3167.699841737747
3163,3168.724833726883
3164,3169.7678253650665
3165,3170.8268167972565
3166,3171.838808774948
3167,3172.830801010132
3168,3173.837793111801
3169,3174.8647849559784
3170,3175.9027767181396
3171,3176.971768140793
3172,3178.0477595329285
3173,3179.048751592636
3174,3180.0637435913086
3175,3181.1027352809906
3176,3182.153226852417
3177,3183.203718662262
3178,3184.2267105579376
3179,3185.2137026786804
3180,3186.1536951065063
3181,3187.110687494278
3182,3188.090679883957
3183,3189.0976717472076
3184,3190.11266374588
3185,3191.1256556510925
3186,3192.138647556305
3187,3193.124639749527
3188,3194.088632106781
3189,3195.0566244125366
3190,3196.0346167087555
3191,3197.019608974457
3192,3198.041600704193
3193,3199.077592611313
3194,3200.113584280014
3195,3201.1735758781433
3196,3202.216567516327
3197,3203.2645592689514
3198,3204.307550907135
3199,3205.3445427417755
3200,3206.3335349559784
3201,3207.2845273017883
3202,3208.2165200710297
3203,3209.1365127563477
3204,3210.0015058517456
3205,3210.857498884201
3206,3211.7674918174744
3207,3212.721484184265
3208,3213.6814765930176
3209,3214.630469083786
3210,3215.583461523056
3211,3216.5524537563324
3212,3217.544445991516
3213,3218.5664377212524
3214,3219.5944294929504
3215,3220.584421634674
3216,3221.567414045334
3217,3222.56240606308
3218,3223.5633981227875
3219,3224.5583901405334
3220,3225.52738237381
3221,3226.515374660492
3222,3227.542366504669
3223,3228.5913581848145
3224,3229.6293499469757
3225,3230.665341615677
3226,3231.7333331108093
3227,3232.7903246879578
3228,3233.810316801071
3229,3234.8263087272644
3230,3235.8573005199432
3231,3236.90829205513
3232,3237.9752836227417
3233,3239.027275323868
3234,3240.0362672805786
3235,3241.061259031296
3236,3242.113250732422
3237,3243.187242269516
3238,3244.2817335128784
3239,3245.376224756241
3240,3246.449216365814
3241,3247.5102078914642
3242,3248.574199438095
3243,3249.615191221237
3244,3250.616183280945
3245,3251.5721757411957
3246,3252.531167984009
3247,3253.5421600341797
3248,3254.553151845932
3249,3255.605143547058
3250,3256.633135318756
3251,3257.666127204895
3252,3258.7111189365387
3253,3259.7511105537415
3254,3260.791102409363
3255,3261.804094314575
3256,3262.7480869293213
3257,3263.639079809189
3258,3264.550072669983
3259,3265.5150649547577
3260,3266.52805685997
3261,3267.557048559189
3262,3268.5630407333374
3263,3269.584032535553
3264,3270.626024246216
3265,3271.636016368866
3266,3272.617008447647
3267,3273.614000558853
3268,3274.740991592407
3269,3275.6579842567444
3270,3276.672976255417
3271,3277.702968120575
3272,3278.7359597682953
3273,3279.7739515304565
3274,3280.823943376541
3275,3281.8869347572327
3276,3282.926926612854
3277,3283.957918405533
3278,3285.008910179138
3279,3286.056901693344
3280,3287.0858936309814
3281,3288.1048855781555
3282,3289.1583771705627
3283,3290.21186876297
3284,3291.2818603515625
3285,3292.3438518047333
3286,3293.405843257904
3287,3294.4778349399567
3288,3295.5498263835907
3289,3296.620817899704
3290,3297.6538095474243
3291,3298.690801382065
3292,3299.729793071747
3293,3300.769784927368
3294,3301.759777069092
3295,3302.7357692718506
3296,3303.7277615070343
3297,3304.734753370285
3298,3305.7577452659607
3299,3306.7467374801636
3300,3307.739729642868
3301,3308.7287216186523
3302,3309.7417135238647
3303,3310.771705389023
3304,3311.812697172165
3305,3312.8376891613007
3306,3313.823681116104
3307,3314.79567360878
3308,3315.789665699005
3309,3316.7916576862335
3310,3317.784649848938
3311,3318.7696418762207
3312,3319.7006344795227
3313,3320.575627565384
3314,3321.459620475769
3315,3322.3696134090424
3316,3323.3096058368683
3317,3324.2815980911255
3318,3325.2755901813507
3319,3326.2815823554993
3320,3327.2645745277405
3321,3328.2515666484833
3322,3329.260558605194
3323,3330.274550676346
3324,3331.299542427063
3325,3332.3265342712402
3326,3333.327526330948
3327,3334.3185184001923
3328,3335.310510635376
3329,3336.315502643585
3330,3337.3254945278168
3331,3338.310486793518
3332,3339.272479057312
3333,3340.24747133255
3334,3341.242463350296
3335,3342.252455472946
3336,3343.2454476356506
3337,3344.2184398174286
3338,3345.159432411194
3339,3346.12842464447
3340,3347.118416786194
3341,3348.081409215927
3342,3349.0314016342163
3343,3349.996393918991
3344,3350.971386194229
3345,3351.9563784599304
3346,3352.9453704357147
3347,3353.9043629169464
3348,3354.847355365753
3349,3355.7883479595184
3350,3356.74534034729
3351,3357.7143325805664
3352,3358.679324865341
3353,3359.625317335129
3354,3360.544310092926
3355,3361.478302717209
3356,3362.441295146942
3357,3363.438287258148
3358,3364.4682788848877
3359,3365.466271162033
3360,3366.458263158798
3361,3367.461255311966
3362,3368.465247154236
3363,3369.441239595413
3364,3370.4022319316864
3365,3371.3632242679596
3366,3372.3162167072296
3367,3373.2692091464996
3368,3374.218201637268
3369,3375.130194425583
3370,3376.0291872024536
3371,3376.942179918289
3372,3377.909172296524
3373,3378.9251642227173
3374,3379.9471559524536
3375,3380.97314786911
3376,3382.017139673233
3377,3383.053131341934
3378,3384.07812333107
3379,3385.0651154518127
3380,3386.0421075820923
3381,3387.0280997753143
3382,3388.0250918865204
3383,3389.027083873749
3384,3390.002076148987
3385,3390.9510686397552
3386,3391.888061285019
3387,3392.8350536823273
3388,3393.802046060562
3389,3394.789038181305
3390,3395.761030435562
3391,3396.748022556305
3392,3397.756014585495
3393,3398.7850065231323
3394,3399.796498298645
3395,3400.8079903125763
3396,3401.8319821357727
3397,3402.847974061966
3398,3403.8419663906097
3399,3404.810958623886
3400,3405.7919507026672
3401,3406.7909429073334
3402,3407.8189346790314
3403,3408.8599264621735
3404,3409.861918449402
3405,3410.8829102516174
3406,3411.9239020347595
3407,3412.968893766403
3408,3413.96888589859
3409,3414.953877925873
3410,3415.9468700885773
3411,3416.947862148285
3412,3417.9508543014526
3413,3418.930846452713
3414,3419.8658390045166
3415,3420.8078315258026
3416,3421.7698237895966
3417,3422.745816230774
3418,3423.7218084335327
3419,3424.681800842285
3420,3425.613793373108
3421,3426.5727858543396
3422,3427.538778066635
3423,3428.519770383835
3424,3429.4907624721527
3425,3430.4377551078796
3426,3431.3937475681305
3427,3432.3637397289276
3428,3433.345731973648
3429,3434.3497240543365
3430,3435.3427159786224
3431,3436.3007085323334
3432,3437.254700899124
3433,3438.2206933498383
3434,3439.197685480118
3435,3440.1956775188446
3436,3441.1966695785522
3437,3442.1956617832184
3438,3443.2236535549164
3439,3444.26864528656
3440,3445.2926371097565
3441,3446.3306288719177
3442,3447.365620613098
3443,3448.3976123332977
3444,3449.3886046409607
3445,3450.3515968322754
3446,3451.321589231491
3447,3452.3125813007355
3448,3453.313573360443
3449,3454.2595658302307
3450,3455.1465587615967
3451,3456.0245518684387
3452,3456.918544769287
3453,3457.8735370635986
3454,3458.8735291957855
3455,3459.8905210494995
3456,3460.9175128936768
3457,3461.9085052013397
3458,3462.8964972496033
3459,3463.8654894828796
3460,3464.8214819431305
3461,3465.746474504471
3462,3466.668467283249
3463,3467.590460062027
3464,3468.5204524993896
3465,3469.482445001602
3466,3470.468437194824
3467,3471.46342921257
3468,3472.4594213962555
3469,3473.4344136714935
3470,3474.4284057617188
3471,3475.4363975524902
3472,3476.4553894996643
3473,3477.477381467819
3474,3478.4733736515045
3475,3479.470365524292
3476,3480.4713575839996
3477,3481.4743497371674
3478,3482.456341981888
3479,3483.41433429718
3480,3484.370326757431
3481,3485.3383190631866
3482,3486.2973113059998
3483,3487.2583038806915
3484,3488.1962962150574
3485,3489.094289302826
3486,3489.992282152176
3487,3490.9052748680115
3488,3491.865267276764
3489,3492.8732590675354
3490,3493.896250963211
3491,3494.893243074417
3492,3495.88423538208
3493,3496.876227378845
3494,3497.8452196121216
3495,3498.8142120838165
3496,3499.744204521179
3497,3500.6741971969604
3498,3501.6271896362305
3499,3502.5801820755005
3500,3503.5641741752625
3501,3504.5721662044525
3502,3505.556158542633
3503,3506.5191507339478
3504,3507.4841430187225
3505,3508.477135181427
3506,3509.5031270980835
3507,3510.5451188087463
3508,3511.568110704422
3509,3512.5701026916504
3510,3513.574094772339
3511,3514.5870866775513
3512,3515.6150784492493
3513,3516.640070438385
3514,3517.63206243515
3515,3518.629054546356
3516,3519.640046596527
3517,3520.6580386161804
3518,3521.655030488968
3519,3522.6280229091644
3520,3523.6000151634216
3521,3524.5730073451996
3522,3525.568999528885
3523,3526.5339918136597
3524,3527.4479846954346
3525,3528.3249776363373
3526,3529.192970752716
3527,3530.0949635505676
3528,3531.0099563598633
3529,3531.963948726654
3530,3532.941941022873
3531,3533.930932998657
3532,3534.932925224304
3533,3535.9319171905518
3534,3536.939909219742
3535,3537.925901412964
3536,3538.8818938732147
3537,3539.754886865616
3538,3540.618880033493
3539,3541.525872707367
3540,3542.4638652801514
3541,3543.4218575954437
3542,3544.3948500156403
3543,3545.3798422813416
3544,3546.3738343715668
3545,3547.3278267383575
3546,3548.2588193416595
3547,3549.1898119449615
3548,3550.168804168701
3549,3551.1407964229584
3550,3552.100788831711
3551,3553.10578083992
3552,3554.1627724170685
3553,3555.2177641391754
3554,3556.249755859375
3555,3557.2957475185394
3556,3558.345239162445
3557,3559.3947308063507
3558,3560.40172290802
3559,3561.4067149162292
3560,3562.426706790924
3561,3563.4426987171173
3562,3564.4336907863617
3563,3565.4036831855774
3564,3566.3866753578186
3565,3567.3726675510406
3566,3568.365659713745
3567,3569.3356518745422
3568,3570.2996442317963
3569,3571.2956364154816
3570,3572.300628423691
3571,3573.294620513916
3572,3574.2716126441956
3573,3575.256604909897
3574,3576.2585968971252
3575,3577.27858877182
3576,3578.2515811920166
3577,3579.190573692322
3578,3580.138566017151
3579,3581.1095583438873
3580,3582.1035504341125
3581,3583.119542360306
3582,3584.105534553528
3583,3585.0835268497467
3584,3586.0785188674927
3585,3587.0795109272003
3586,3588.102502822876
3587,3589.100494861603
3588,3590.099487066269
3589,3591.103478908539
3590,3592.130470752716
3591,3593.1614627838135
3592,3594.1734545230865
3593,3595.201446533203
3594,3596.2474381923676
3595,3597.2784299850464
3596,3598.2924218177795
3597,3599.319413661957
3598,3600.3644053936005
3599,3601.3743975162506
3600,3602.3643896579742
3601,3603.3563816547394
3602,3604.357373714447
3603,3605.354365825653
3604,3606.3443579673767
3605,3607.3473501205444
3606,3608.352842092514
3607,3609.3583340644836
3608,3610.2923266887665
3609,3611.164319753647
3610,3612.0523126125336
3611,3612.967305421829
3612,3613.891298055649
3613,3614.8312904834747
3614,3615.750283241272
3615,3616.667275905609
3616,3617.589268684387
3617,3618.5252611637115
3618,3619.47425365448
3619,3620.397246360779
3620,3621.3072390556335
3621,3622.214231967926
3622,3623.1352245807648
3623,3624.0802171230316
3624,3625.054209470749
3625,3626.005201816559
3626,3626.9431943893433
3627,3627.9011867046356
3628,3628.897178888321
3629,3629.9311707019806
3630,3630.9791622161865
3631,3632.005154132843
3632,3633.0431458950043
3633,3634.0921375751495
3634,3635.143129348755
3635,3636.149121284485
3636,3637.1401133537292
3637,3638.116105556488
3638,3639.074098110199
3639,3640.0210905075073
3640,3641.0040826797485
3641,3642.0340745449066
3642,3643.0860662460327
3643,3644.1580576896667
3644,3645.2230491638184
3645,3646.2530410289764
3646,3647.2810328006744
3647,3648.316024541855
3648,3649.354016304016
3649,3650.388008117676
3650,3651.4020001888275
3651,3652.391992330551
3652,3653.3799843788147
3653,3654.3719766139984
3654,3655.3919684886932
3655,3656.398960351944
3656,3657.387952566147
3657,3658.383944749832
3658,3659.400936603546
3659,3660.4329283237457
3660,3661.456920146942
3661,3662.453912258148
3662,3663.3919048309326
3663,3664.3388974666595
3664,3665.3238894939423
3665,3666.3498814105988
3666,3667.4278728961945
3667,3668.482864379883
3668,3669.5358560085297
3669,3670.5808477401733
3670,3671.5938396453857
3671,3672.590831756592
3672,3673.587823867798
3673,3674.5888159275055
3674,3675.5878081321716
3675,3676.5888001918793
3676,3677.6047921180725
3677,3678.623783826828
3678,3679.6437759399414
3679,3680.6637678146362
3680,3681.67875957489
3681,3682.6657519340515
3682,3683.6367440223694
3683,3684.6257362365723
3684,3685.6297283172607
3685,3686.6387202739716
3686,3687.623712539673
3687,3688.570704936981
3688,3689.5486972332
3689,3690.5626890659332
3690,3691.5836811065674
3691,3692.585673093796
3692,3693.501665830612
3693,3694.433658361435
3694,3695.395650625229
3695,3696.3846428394318
3696,3697.355635166168
3697,3698.320627450943
3698,3699.2906198501587
3699,3700.284611940384
3700,3701.27960395813
3701,3702.2575962543488
3702,3703.2465884685516
3703,3704.260580301285
3704,3705.2825722694397
3705,3706.3245639801025
3706,3707.3615555763245
3707,3708.370547771454
3708,3709.3835396766663
3709,3710.4165313243866
3710,3711.4715230464935
3711,3712.5775141716003
3712,3713.7045052051544
3713,3714.805496454239
3714,3715.8444883823395
3715,3716.829480409622
3716,3717.8364725112915
3717,3718.8674643039703
3718,3719.9114561080933
3719,3720.9724476337433
3720,3722.0334391593933
3721,3723.05943107605
3722,3724.0584230422974
3723,3725.0694150924683
3724,3726.0954070091248
3725,3727.131398677826
3726,3728.1543905735016
3727,3729.1523826122284
3728,3730.1663744449615
3729,3731.217366218567
3730,3732.289357662201
3731,3733.3683490753174
3732,3734.4413406848907
3733,3735.512332201004
3734,3736.5773236751556
3735,3737.6173152923584
3736,3738.6133074760437
3737,3739.6112995147705
3738,3740.6212916374207
3739,3741.643283367157
3740,3742.6612753868103
3741,3743.6692674160004
3742,3744.709259033203
3743,3745.7692506313324
3744,3746.8242423534393
3745,3747.8392341136932
3746,3748.8332262039185
3747,3749.850218296051
3748,3750.8932099342346
3749,3751.94020152092
3750,3752.949193716049
3751,3753.967185497284
3752,3755.005177259445
3753,3756.055168867111
3754,3757.0591609477997
3755,3758.052153110504
3756,3759.061145067215
3757,3760.0851368904114
3758,3761.1181287765503
3759,3762.1541204452515
3760,3763.1751124858856
3761,3764.185104370117
3762,3765.2230961322784
3763,3766.2760877609253
3764,3767.335079431534
3765,3768.3880710601807
3766,3769.4000630378723
3767,3770.415054798126
3768,3771.4440467357635
3769,3772.4830384254456
3770,3773.521030187607
3771,3774.529022216797
3772,3775.5390141010284
3773,3776.548006296158
3774,3777.5609982013702
3775,3778.5879900455475
3776,3779.6019818782806
3777,3780.60697388649
3778,3781.6239659786224
3779,3782.6409578323364
3780,3783.666949748993
3781,3784.660941839218
3782,3785.647933959961
3783,3786.664925813675
3784,3787.7079174518585
3785,3788.7519092559814
3786,3789.744901418686
3787,3790.739893436432
3788,3791.7438855171204
3789,3792.719877719879
3790,3793.655870437622
3791,3794.5998628139496
3792,3795.5698552131653
3793,3796.5638473033905
3794,3797.530839443207
3795,3798.5228316783905
3796,3799.532823562622
3797,3800.5228157043457
3798,3801.493808031082
3799,3802.472800254822
3800,3803.4677925109863
3801,3804.442784547806
3802,3805.4257769584656
3803,3806.427768945694
3804,3807.4377608299255
3805,3808.419753074646
3806,3809.4047453403473
3807,3810.4067373275757
3808,3811.4167292118073
3809,3812.417721271515
3810,3813.3757135868073
3811,3814.3027062416077
3812,3815.2596986293793
3813,3816.2346909046173
3814,3817.2416830062866
3815,3818.2726747989655
3816,3819.3086664676666
3817,3820.284658908844
3818,3821.243651151657
3819,3822.2316434383392
3820,3823.2426352500916
3821,3824.2726271152496
3822,3825.312618970871
3823,3826.337610721588
3824,3827.340602874756
3825,3828.313595056534
3826,3829.2785873413086
3827,3830.2435796260834
3828,3831.192572116852
3829,3832.1525645256042
3830,3833.1165568828583
3831,3834.062549352646
3832,3835.001541852951
3833,3835.9535343647003
3834,3836.9175267219543
3835,3837.8575191497803
3836,3838.804511785507
3837,3839.7875039577484
3838,3840.7954959869385
3839,3841.8144879341125
3840,3842.8124799728394
3841,3843.7964720726013
3842,3844.783464193344
3843,3845.7674565315247
3844,3846.7464487552643
3845,3847.689441204071
3846,3848.61043381691
3847,3849.5284266471863
3848,3850.4664192199707
3849,3851.4014117717743
3850,3852.3504042625427
3851,3853.2853968143463
3852,3854.209389448166
3853,3855.151381969452
3854,3856.1143741607666
3855,3857.087366580963
3856,3858.043359041214
3857,3859.016351222992
3858,3860.0043432712555
3859,3861.013335466385
3860,3862.039327144623
3861,3863.06831908226
3862,3864.0613112449646
3863,3865.0143036842346
3864,3865.9562962055206
3865,3866.867288827896
3866,3867.7192821502686
3867,3868.5622754096985
3868,3869.455268383026
3869,3870.3722610473633
3870,3871.2482540607452
3871,3872.0842473506927
3872,3872.931240797043
3873,3873.807233810425
3874,3874.7292263507843
3875,3875.7042186260223
3876,3876.6562111377716
3877,3877.5962035655975
3878,3878.553195953369
3879,3879.512188434601
3880,3880.4941806793213
3881,3881.4551730155945
3882,3882.4071655273438
3883,3883.3701577186584
3884,3884.3451499938965
3885,3885.3001425266266
3886,3886.2481348514557
3887,3887.2151272296906
3888,3888.2041194438934
3889,3889.2211112976074
3890,3890.2171034812927
3891,3891.2370953559875
3892,3892.286087036133
3893,3893.303078889847
3894,3894.322070837021
3895,3895.338062763214
3896,3896.349054813385
3897,3897.3600466251373
3898,3898.361038684845
3899,3899.32803106308
3900,3900.2960233688354
3901,3901.2740156650543
3902,3902.2270081043243
3903,3903.1770005226135
3904,3904.153992652893
3905,3905.1299850940704
3906,3906.0969772338867
3907,3907.100969314575
3908,3908.1359610557556
3909,3909.164952993393
3910,3910.147945165634
3911,3911.1299374103546
3912,3912.120929479599
3913,3913.1059217453003
3914,3914.0649139881134
3915,3914.9989066123962
3916,3915.930899143219
3917,3916.8578917980194
3918,3917.7858843803406
3919,3918.7058770656586
3920,3919.640869617462
3921,3920.5958621501923
3922,3921.560854434967
3923,3922.514846801758
3924,3923.4878392219543
3925,3924.4788312911987
3926,3925.4768233299255
3927,3926.46981549263
3928,3927.4598076343536
3929,3928.452799797058
3930,3929.4467918872833
3931,3930.3997843265533
3932,3931.3167769908905
3933,3932.251769542694
3934,3933.207762002945
3935,3934.17475438118
3936,3935.1177468299866
3937,3936.069739341736
3938,3937.022731781006
3939,3937.9527242183685
3940,3938.901716709137
3941,3939.8667089939117
3942,3940.8347012996674
3943,3941.7396941184998
3944,3942.6156873703003
3945,3943.5386798381805
3946,3944.4856724739075
3947,3945.448664665222
3948,3946.4196569919586
3949,3947.3676495552063
3950,3948.3166420459747
3951,3949.2846343517303
3952,3950.26162648201
3953,3951.224618911743
3954,3952.16761136055
3955,3953.1046040058136
3956,3954.037596464157
3957,3954.9665892124176
3958,3955.901581764221
3959,3956.830574274063
3960,3957.7515671253204
3961,3958.686559677124
3962,3959.6545519828796
3963,3960.6495440006256
3964,3961.6505360603333
3965,3962.6685280799866
3966,3963.6975197792053
3967,3964.7375116348267
3968,3965.7765033245087
3969,3966.7864952087402
3970,3967.7734875679016
3971,3968.7244799137115
3972,3969.6864721775055
3973,3970.6664645671844
3974,3971.6584565639496
3975,3972.665448665619
3976,3973.6524407863617
3977,3974.637433052063
3978,3975.6254251003265
3979,3976.6094172000885
3980,3977.5784096717834
3981,3978.5614018440247
3982,3979.5563938617706
3983,3980.5433859825134
3984,3981.5623779296875
3985,3982.5673699378967
3986,3983.539362192154
3987,3984.5183544158936
3988,3985.4993467330933
3989,3986.4803388118744
3990,3987.4303312301636
3991,3988.3893237113953
3992,3989.3633160591125
3993,3990.3223083019257
3994,3991.2873005867004
3995,3992.269292831421
3996,3993.263284921646
3997,3994.2512772083282
3998,3995.227269411087
3999,3996.2262613773346
4000,3997.22425365448
4001,3998.2202455997467
4002,3999.239237546921
4003,4000.2542295455933
4004,4001.2672214508057
4005,4002.2572135925293
4006,4003.2542057037354
4007,4004.2671976089478
4008,4005.3111894130707
4009,4006.3641810417175
4010,4007.3891727924347
4011,4008.396164894104
4012,4009.4081568717957
4013,4010.4051489830017
4014,4011.416140794754
4015,4012.4391326904297
4016,4013.444124698639
4017,4014.4901163578033
4018,4015.5501079559326
4019,4016.5890996456146
4020,4017.6020917892456
4021,4018.634083509445
4022,4019.6850752830505
4023,4020.7320668697357
4024,4021.734058856964
4025,4022.723051071167
4026,4023.7300429344177
4027,4024.74503493309
4028,4025.748027086258
4029,4026.7160193920135
4030,4027.693011522293
4031,4028.6540038585663
4032,4029.5759966373444
4033,4030.4649896621704
4034,4031.394982099533
4035,4032.3659744262695
4036,4033.377966403961
4037,4034.397958278656
4038,4035.4339501857758
4039,4036.466941833496
4040,4037.464933872223
4041,4038.469925880432
4042,4039.493917942047
4043,4040.513909816742
4044,4041.540901660919
4045,4042.563893556595
4046,4043.5828852653503
4047,4044.585877418518
4048,4045.596869468689
4049,4046.6158611774445
4050,4047.621853351593
4051,4048.618845462799
4052,4049.624837398529
4053,4050.654829263687
4054,4051.673821210861
4055,4052.6818130016327
4056,4053.658805370331
4057,4054.6407976150513
4058,4055.6487896442413
4059,4056.6537816524506
4060,4057.6287739276886
4061,4058.619765996933
4062,4059.633757829666
4063,4060.653749704361
4064,4061.6607418060303
4065,4062.5857343673706
4066,4063.4477276802063
4067,4064.2757210731506
4068,4065.1047143936157
4069,4065.9527077674866
4070,4066.8297007083893
4071,4067.744693517685
4072,4068.6826860904694
4073,4069.612678527832
4074,4070.4886717796326
4075,4071.3176651000977
4076,4072.1216588020325
4077,4072.9376521110535
4078,4073.7716455459595
4079,4074.6186389923096
4080,4075.474632024765
4081,4076.344625234604
4082,4077.2346181869507
4083,4078.1476109027863
4084,4079.0896034240723
4085,4080.063595533371
4086,4081.046587705612
4087,4082.0225801467896
4088,4083.0145721435547
4089,4084.0145642757416
4090,4084.9985563755035
4091,4085.9575488567352
4092,4086.9295411109924
4093,4087.9265332221985
4094,4088.9515249729156
4095,4089.9875168800354
4096,4091.0175087451935
4097,4092.01350069046
4098,4093.003492832184
4099,4093.99848484993
4100,4094.997477054596
4101,4095.9934689998627
4102,4097.001461029053
4103,4098.025453090668
4104,4099.059444665909
4105,4100.091436624527
4106,4101.119428396225
4107,4102.119420528412
4108,4103.103412628174
4109,4104.096404790878
4110,4105.088396787643
4111,4106.081388950348
4112,4107.081381082535
4113,4108.071373224258
4114,4109.050365447998
4115,4110.0433576107025
4116,4111.054349422455
4117,4112.075341463089
4118,4113.080333471298
4119,4114.063325643539
4120,4115.0493178367615
4121,4116.037309885025
4122,4117.03130197525
4123,4118.0252940654755
4124,4118.996286392212
4125,4119.936279058456
4126,4120.889271497726
4127,4121.850263834
4128,4122.8282558918
4129,4123.818248033524
4130,4124.793240308762
4131,4125.756232738495
4132,4126.72222495079
4133,4127.690217256546
4134,4128.666209697723
4135,4129.6472017765045
4136,4130.624194145203
4137,4131.583186388016
4138,4132.538178920746
4139,4133.499171257019
4140,4134.472163438797
4141,4135.451155662537
4142,4136.417148113251
4143,4137.392140388489
4144,4138.37513256073
4145,4139.365124702454
4146,4140.352116823196
4147,4141.34210896492
4148,4142.311101198196
4149,4143.263093709946
4150,4144.231086015701
4151,4145.2030782699585
4152,4146.179070472717
4153,4147.1510627269745
4154,4148.108055114746
4155,4149.055047750473
4156,4150.00004029274
4157,4150.9460327625275
4158,4151.919024944305
4159,4152.862017393112
4160,4153.770010232925
4161,4154.675003051758
4162,4155.571995973587
4163,4156.451988935471
4164,4157.32098197937
4165,4158.215975046158
4166,4159.132967710495
4167,4160.0769600868225
4168,4160.988952875137
4169,4161.887945652008
4170,4162.746938943863
4171,4163.577932357788
4172,4164.406925678253
4173,4165.242919206619
4174,4166.091912269592
4175,4166.938905715942
4176,4167.77689909935
4177,4168.604892492294
4178,4169.429885864258
4179,4170.259879350662
4180,4171.077872753143
4181,4171.8978662490845
4182,4172.693860054016
4183,4173.4618537425995
4184,4174.208847999573
4185,4174.933842182159
4186,4175.6438364982605
4187,4176.346830844879
4188,4177.065825223923
4189,4177.808819293976
4190,4178.616812944412
4191,4179.444806337357
4192,4180.2657997608185
4193,4181.115792989731
4194,4182.0087859630585
4195,4182.851779222488
4196,4183.659772872925
4197,4184.485766410828
4198,4185.408758878708
4199,4186.444750785828
4200,4187.503742218018
4201,4188.497734546661
4202,4189.463726758957
4203,4190.475718736649
4204,4191.515710353851
4205,4192.5477023124695
4206,4193.577694177628
4207,4194.613685846329
4208,4195.656677484512
4209,4196.707669258118
4210,4197.737661123276
4211,4198.734653234482
4212,4199.738645076752
4213,4200.71563744545
4214,4201.664629936218
4215,4202.6096222400665
4216,4203.595614433289
4217,4204.583606719971
4218,4205.518599271774
4219,4206.409592151642
4220,4207.347584724426
4221,4208.300577163696
4222,4209.260569572449
4223,4210.257561683655
4224,4211.268553495407
4225,4212.273545503616
4226,4213.226537942886
4227,4214.185530424118
4228,4215.177522420883
4229,4216.205514431
4230,4217.243506193161
4231,4218.289497852325
4232,4219.314489603043
4233,4220.324481725693
4234,4221.3254737854
4235,4222.334465742111
4236,4223.348457574844
4237,4224.381449460983
4238,4225.422441244125
4239,4226.487432718277
4240,4227.549424171448
4241,4228.600415945053
4242,4229.6244077682495
4243,4230.636399745941
4244,4231.607392072678
4245,4232.578384399414
4246,4233.572376489639
4247,4234.572368383408
4248,4235.575360536575
4249,4236.538352966309
4250,4237.458345651627
4251,4238.319338798523
4252,4239.139332294464
4253,4239.932325839996
4254,4240.7193195819855
4255,4241.5863127708435
4256,4242.576304912567
4257,4243.521297454834
4258,4244.451290130615
4259,4245.424282312393
4260,4246.411274433136
4261,4247.387266635895
4262,4248.375258922577
4263,4249.381250858307
4264,4250.401242733002
4265,4251.4292345047
4266,4252.453226566315
4267,4253.450218677521
4268,4254.4352107048035
4269,4255.395203113556
4270,4256.362195491791
4271,4257.3471875190735
4272,4258.3601796627045
4273,4259.391171455383
4274,4260.393163442612
4275,4261.321156024933
4276,4262.274148464203
4277,4263.2311408519745
4278,4264.221132993698
4279,4265.236124992371
4280,4266.272116661072
4281,4267.3281083106995
4282,4268.373100042343
4283,4269.39809179306
4284,4270.401083946228
4285,4271.397076129913
4286,4272.399068117142
4287,4273.405060052872
4288,4274.420052051544
4289,4275.456043720245
4290,4276.48003578186
4291,4277.48502779007
4292,4278.4780197143555
4293,4279.469012022018
4294,4280.492003917694
4295,4281.533995628357
4296,4282.582987308502
4297,4283.642978668213
4298,4284.674970626831
4299,4285.676962614059
4300,4286.664954662323
4301,4287.674946784973
4302,4288.704938650131
4303,4289.734930276871
4304,4290.788922071457
4305,4291.833913803101
4306,4292.876905441284
4307,4293.8948974609375
4308,4294.9118893146515
4309,4295.974880933762
4310,4297.05787229538
4311,4298.156863451004
4312,4299.241854906082
4313,4300.306846380234
4314,4301.345838069916
4315,4302.388829946518
4316,4303.45682144165
4317,4304.526813030243
4318,4305.572804689407
4319,4306.5317969322205
4320,4307.443789720535
4321,4308.37978219986
4322,4309.3247747421265
4323,4310.303766965866
4324,4311.300759077072
4325,4312.327750921249
4326,4313.355742692947
4327,4314.364734888077
4328,4315.362726926804
4329,4316.361718893051
4330,4317.367710828781
4331,4318.375702857971
4332,4319.395694732666
4333,4320.397686958313
4334,4321.399678945541
4335,4322.388671159744
4336,4323.351663351059
4337,4324.322655677795
4338,4325.309647798538
4339,4326.3166399002075
4340,4327.32763171196
4341,4328.3506236076355
4342,4329.368615627289
4343,4330.35160779953
4344,4331.321600198746
4345,4332.290592432022
4346,4333.2705845832825
4347,4334.258576869965
4348,4335.2295689582825
4349,4336.146561861038
4350,4337.015554904938
4351,4337.9035477638245
4352,4338.795540809631
4353,4339.674533843994
4354,4340.552526712418
4355,4341.414520025253
4356,4342.30051279068
4357,4343.213505744934
4358,4344.156498193741
4359,4345.114490509033
4360,4346.096482753754
4361,4347.0944747924805
4362,4348.087466955185
4363,4349.0864589214325
4364,4350.095451116562
4365,4351.124442815781
4366,4352.159434556961
4367,4353.197426319122
4368,4354.208418369293
4369,4355.20841050148
4370,4356.192402601242
4371,4357.187394618988
4372,4358.203386545181
4373,4359.228378534317
4374,4360.262370347977
4375,4361.270362138748
4376,4362.25735449791
4377,4363.251346588135
4378,4364.264338493347
4379,4365.291330337524
4380,4366.324322223663
4381,4367.34831404686
4382,4368.360306024551
4383,4369.3632979393005
4384,4370.367290019989
4385,4371.383281946182
4386,4372.398273944855
4387,4373.386265993118
4388,4374.284258842468
4389,4375.134252071381
4390,4375.953245639801
4391,4376.744239330292
4392,4377.516233205795
4393,4378.293226957321
4394,4379.128220319748
4395,4379.987213611603
4396,4380.821207046509
4397,4381.6981999874115
4398,4382.612192630768
4399,4383.5491852760315
4400,4384.532177448273
4401,4385.543169498444
4402,4386.529161691666
4403,4387.427154541016
4404,4388.298147678375
4405,4389.171140670776
4406,4390.037133693695
4407,4390.907126903534
4408,4391.799119710922
4409,4392.713112592697
4410,4393.652105093002
4411,4394.597097635269
4412,4395.529090166092
4413,4396.469082593918
4414,4397.42907500267
4415,4398.399067401886
4416,4399.369059562683
4417,4400.267052412033
4418,4401.182045221329
4419,4402.120037794113
4420,4403.068030357361
4421,4404.025022745132
4422,4404.999014854431
4423,4405.974007129669
4424,4406.951999425888
4425,4407.931991577148
4426,4408.900984048843
4427,4409.850976467133
4428,4410.780969142914
4429,4411.706961631775
4430,4412.634954214096
4431,4413.582946777344
4432,4414.537939071655
4433,4415.497931480408
4434,4416.45792388916
4435,4417.428916215897
4436,4418.380908727646
4437,4419.343900918961
4438,4420.333893060684
4439,4421.349884986877
4440,4422.3798768520355
4441,4423.406868696213
4442,4424.400860786438
4443,4425.376852989197
4444,4426.340845346451
4445,4427.314837694168
4446,4428.308829784393
4447,4429.307821989059
4448,4430.309813976288
4449,4431.313806056976
4450,4432.3057980537415
4451,4433.28379034996
4452,4434.253782510757
4453,4435.24277472496
4454,4436.2307670116425
4455,4437.179759263992
4456,4438.07475233078
4457,4438.982744932175
4458,4439.907737731934
4459,4440.832730293274
4460,4441.785722732544
4461,4442.772714853287
4462,4443.772706985474
4463,4444.7946989536285
4464,4445.801690816879
4465,4446.800683021545
4466,4447.782675266266
4467,4448.765667438507
4468,4449.748659610748
4469,4450.73465180397
4470,4451.717643976212
4471,4452.699636220932
4472,4453.661628484726
4473,4454.621620893478
4474,4455.595613002777
4475,4456.595605134964
4476,4457.591597318649
4477,4458.565589427948
4478,4459.542581796646
4479,4460.508574008942
4480,4461.474566459656
4481,4462.460558652878
4482,4463.450550794601
4483,4464.433542966843
4484,4465.40353512764
4485,4466.359527587891
4486,4467.317519903183
4487,4468.2905123233795
4488,4469.269504547119
4489,4470.25149679184
4490,4471.246488809586
4491,4472.21048116684
4492,4473.169473648071
4493,4474.113466024399
4494,4475.079458475113
4495,4476.052450656891
4496,4477.043442726135
4497,4478.055434703827
4498,4479.047426939011
4499,4480.023419141769
4500,4480.997411251068
4501,4481.996403455734
4502,4483.041395187378
4503,4484.1063866615295
4504,4485.162378311157
4505,4486.216369867325
4506,4487.251361608505
4507,4488.282353401184
4508,4489.325345277786
4509,4490.37033700943
4510,4491.434328556061
4511,4492.486320018768
4512,4493.521311998367
4513,4494.53430390358
4514,4495.558295726776
4515,4496.581287622452
4516,4497.606279373169
4517,4498.625271320343
4518,4499.635263442993
4519,4500.6242554187775
4520,4501.624247550964
4521,4502.641239404678
4522,4503.658231496811
4523,4504.682223320007
4524,4505.692215204239
4525,4506.678207397461
4526,4507.652199745178
4527,4508.6411917209625
4528,4509.637183904648
4529,4510.641175985336
4530,4511.633167982101
4531,4512.631160020828
4532,4513.612152338028
4533,4514.574144601822
4534,4515.546136856079
4535,4516.53012919426
4536,4517.523121356964
4537,4518.520113229752
4538,4519.507105588913
4539,4520.491097688675
4540,4521.4850897789
4541,4522.480081796646
4542,4523.496073722839
4543,4524.532065629959
4544,4525.571057319641
4545,4526.577049255371
4546,4527.563041448593
4547,4528.555033683777
4548,4529.554025650024
4549,4530.555017709732
4550,4531.5580098629
4551,4532.535001993179
4552,4533.510994195938
4553,4534.477986574173
4554,4535.4664788246155
4555,4536.454970836639
4556,4537.461962938309
4557,4538.47295498848
4558,4539.482946872711
4559,4540.472939014435
4560,4541.455931186676
4561,4542.457923173904
4562,4543.468915224075
4563,4544.474907159805
4564,4545.473899364471
4565,4546.460891485214
4566,4547.433883666992
4567,4548.399876117706
4568,4549.372868299484
4569,4550.351860523224
4570,4551.337852716446
4571,4552.318844795227
4572,4553.28183722496
4573,4554.244829654694
4574,4555.225821733475
4575,4556.217813968658
4576,4557.2148060798645
4577,4558.216798067093
4578,4559.213790178299
4579,4560.197782278061
4580,4561.189774513245
4581,4562.161766767502
4582,4563.13675904274
4583,4564.121751070023
4584,4565.119743347168
4585,4566.110735416412
4586,4567.093727588654
4587,4568.071719884872
4588,4569.053711891174
4589,4570.045704126358
4590,4571.0496962070465
4591,4572.0336883068085
4592,4572.995680809021
4593,4573.977672815323
4594,4574.958665132523
4595,4575.935657262802
4596,4576.908649682999
4597,4577.867641925812
4598,4578.819634437561
4599,4579.766626834869
4600,4580.728619337082
4601,4581.695611715317
4602,4582.671603918076
4603,4583.651596069336
4604,4584.611588478088
4605,4585.577580690384
4606,4586.5475730896
4607,4587.5255653858185
4608,4588.496557474136
4609,4589.478549718857
4610,4590.453541994095
4611,4591.450534105301
4612,4592.466526031494
4613,4593.486517906189
4614,4594.502509832382
4615,4595.513501882553
4616,4596.51149392128
4617,4597.4904861450195
4618,4598.459478378296
4619,4599.429470777512
4620,4600.397463083267
4621,4601.362455368042
4622,4602.289448022842
4623,4603.170441150665
4624,4604.018434286118
4625,4604.8304278850555
4626,4605.658421278
4627,4606.536414384842
4628,4607.48340678215
4629,4608.46239900589
4630,4609.44439125061
4631,4610.417383432388
4632,4611.369375944138
4633,4612.346368074417
4634,4613.338360309601
4635,4614.347352266312
4636,4615.345344305038
4637,4616.313336610794
4638,4617.25732922554
4639,4618.2043216228485
4640,4619.143314123154
4641,4620.090306758881
4642,4621.054299116135
4643,4622.01829123497
4644,4622.969283819199
4645,4623.933276176453
4646,4624.921268224716
4647,4625.931260347366
4648,4626.962252140045
4649,4628.00824379921
4650,4629.031235694885
4651,4630.028227806091
4652,4631.014219999313
4653,4632.000212192535
4654,4632.995204210281
4655,4634.001196146011
4656,4635.006188154221
4657,4636.001180410385
4658,4636.934172868729
4659,4637.80716586113
4660,4638.687159061432
4661,4639.566152095795
4662,4640.475144863129
4663,4641.426137208939
4664,4642.420129299164
4665,4643.4321212768555
4666,4644.45411324501
4667,4645.438105344772
4668,4646.407097578049
4669,4647.377089977264
4670,4648.378082036972
4671,4649.385073900223
4672,4650.38606595993
4673,4651.357058286667
4674,4652.3140506744385
4675,4653.292042970657
4676,4654.274035215378
4677,4655.277027130127
4678,4656.299019098282
4679,4657.308011054993
4680,4658.313003063202
4681,4659.327995061874
4682,4660.3579869270325
4683,4661.3859786987305
4684,4662.418970584869
4685,4663.431962490082
4686,4664.439954519272
4687,4665.479946136475
4688,4666.521937847137
4689,4667.553929805756
4690,4668.5799214839935
4691,4669.580913543701
4692,4670.580905675888
4693,4671.599897623062
4694,4672.635889291763
4695,4673.669881105423
4696,4674.686872959137
4697,4675.693865060806
4698,4676.71285700798
4699,4677.742848873138
4700,4678.771840572357
4701,4679.809832334518
4702,4680.82182431221
4703,4681.818816423416
4704,4682.826808452606
4705,4683.8378002643585
4706,4684.854792356491
4707,4685.865784168243
4708,4686.8917760849
4709,4687.911767959595
4710,4688.930759906769
4711,4689.947751760483
4712,4690.931744098663
4713,4691.9027364254
4714,4692.890728473663
4715,4693.876720666885
4716,4694.862712860107
4717,4695.804705381393
4718,4696.700698137283
4719,4697.573691368103
4720,4698.445684432983
4721,4699.33567738533
4722,4700.252670049667
4723,4701.133662939072
4724,4702.031655788422
4725,4703.003648042679
4726,4703.963640451431
4727,4704.930632829666
4728,4705.89662528038
4729,4706.880617380142
4730,4707.864609479904
4731,4708.855601787567
4732,4709.841593742371
4733,4710.809586048126
4734,4711.77557849884
4735,4712.731570959091
4736,4713.695563316345
4737,4714.6735553741455
4738,4715.690547466278
4739,4716.698539495468
4740,4717.704531431198
4741,4718.696523427963
4742,4719.661515951157
4743,4720.638508081436
4744,4721.641500234604
4745,4722.669492006302
4746,4723.72448348999
4747,4724.801475048065
4748,4725.875466585159
4749,4726.912458181381
4750,4727.933450222015
4751,4728.962441921234
4752,4730.009433746338
4753,4731.04842543602
4754,4732.075417280197
4755,4733.076409339905
4756,4734.04140162468
4757,4735.009393930435
4758,4735.991386175156
4759,4737.0003781318665
4760,4738.029370069504
4761,4739.083361625671
4762,4740.123353242874
4763,4741.142345190048
4764,4742.13033747673
4765,4743.141329288483
4766,4744.174321174622
4767,4745.228312730789
4768,4746.306304216385
4769,4747.386295557022
4770,4748.434287309647
4771,4749.472279071808
4772,4750.523270845413
4773,4751.589262247086
4774,4752.656253814697
4775,4753.7362451553345
4776,4754.779237031937
4777,4755.794228792191
4778,4756.812220811844
4779,4757.83621263504
4780,4758.8742043972015
4781,4759.916196107864
4782,4760.969187736511
4783,4762.0181794166565
4784,4763.082170963287
4785,4764.129162788391
4786,4765.174154281616
4787,4766.233145952225
4788,4767.28213763237
4789,4768.323129415512
4790,4769.326121330261
4791,4770.3331134319305
4792,4771.355105400085
4793,4772.404097080231
4794,4773.448088645935
4795,4774.4630806446075
4796,4775.444072723389
4797,4776.410065174103
4798,4777.396057367325
4799,4778.418049097061
4800,4779.466040849686
4801,4780.500032663345
4802,4781.496024847031
4803,4782.492016792297
4804,4783.475008964539
4805,4784.420001506805
4806,4785.3089945316315
4807,4786.190987586975
4808,4787.065980434418
4809,4787.9229736328125
4810,4788.754967212677
4811,4789.587960481644
4812,4790.443953752518
4813,4791.331946611404
4814,4792.243939399719
4815,4793.177932024002
4816,4794.141924381256
4817,4795.138916492462
4818,4796.153908252716
4819,4797.177900314331
4820,4798.162892341614
4821,4799.117884874344
4822,4800.070877313614
4823,4801.031869649887
4824,4801.975862026215
4825,4802.929854631424
4826,4803.8958468437195
4827,4804.891839027405
4828,4805.902830839157
4829,4806.928822755814
4830,4807.949814558029
4831,4808.98780632019
4832,4810.003798246384
4833,4811.023790359497
4834,4812.056782007217
4835,4813.059774160385
4836,4814.027766466141
4837,4814.996758699417
4838,4815.974750995636
4839,4816.96474313736
4840,4817.936735391617
4841,4818.903727769852
4842,4819.870719909668
4843,4820.831712245941
4844,4821.766705036163
4845,4822.684697628021
4846,4823.5816905498505
4847,4824.494683265686
4848,4825.436675786972
4849,4826.38366818428
4850,4827.380660295486
4851,4828.34365272522
4852,4829.293645143509
4853,4830.267637491226
4854,4831.235629796982
4855,4832.183622121811
4856,4833.076615095139
4857,4833.969608068466
4858,4834.875600814819
4859,4835.806593418121
4860,4836.7785856723785
4861,4837.76157784462
4862,4838.763569831848
4863,4839.777561903
4864,4840.760554075241
4865,4841.726546287537
4866,4842.722538471222
4867,4843.7325303554535
4868,4844.749522447586
4869,4845.73851442337
4870,4846.735506534576
4871,4847.741498708725
4872,4848.763490438461
4873,4849.763482570648
4874,4850.701475143433
4875,4851.786466598511
4876,4852.787458658218
4877,4853.923449516296
4878,4855.075440406799
4879,4856.178431510925
4880,4857.252423048019
4881,4858.339414358139
4882,4859.415405988693
4883,4860.472397565842
4884,4861.516389131546
4885,4862.550380945206
4886,4863.541373252869
4887,4864.530365228653
4888,4865.534357309341
4889,4866.559349060059
4890,4867.577341079712
4891,4868.602332830429
4892,4869.607325077057
4893,4870.632316827774
4894,4871.661308765411
4895,4872.713300228119
4896,4873.760292053223
4897,4874.774283885956
4898,4875.805275678635
4899,4876.82826757431
4900,4877.858259439468
4901,4878.8612513542175
4902,4879.844243764877
4903,4880.834235906601
4904,4881.841227769852
4905,4882.859219789505
4906,4883.826211929321
4907,4884.771204471588
4908,4885.733196973801
4909,4886.707189083099
4910,4887.693181276321
4911,4888.6481738090515
4912,4889.56916642189
4913,4890.505158901215
4914,4891.460151433945
4915,4892.418143749237
4916,4893.375136137009
4917,4894.313128709793
4918,4895.279121160507
4919,4896.289113044739
4920,4897.306104898453
4921,4898.369096517563
4922,4899.4490878582
4923,4900.536079406738
4924,4901.608070850372
4925,4902.634062767029
4926,4903.647054672241
4927,4904.686046361923
4928,4905.737038135529
4929,4906.793029546738
4930,4907.848021268845
4931,4908.864013195038
4932,4909.845005273819
4933,4910.8179976940155
4934,4911.83598947525
4935,4912.880981206894
4936,4913.935972929001
4937,4914.9479649066925
4938,4915.966956853867
4939,4917.010948419571
4940,4918.058940172195
4941,4919.096931934357
4942,4920.097923994064
4943,4921.098916053772
4944,4922.105907917023
4945,4923.113899946213
4946,4924.112892150879
4947,4925.120884180069
4948,4926.092876434326
4949,4927.051868677139
4950,4928.014861106873
4951,4928.999853372574
4952,4930.012845277786
4953,4931.033837080002
4954,4932.018829345703
4955,4932.9988214969635
4956,4934.018813371658
4957,4935.063805103302
4958,4936.169796228409
4959,4937.245787858963
4960,4938.312779188156
4961,4939.378770828247
4962,4940.425762414932
4963,4941.394754886627
4964,4942.289747714996
4965,4943.1537408828735
4966,4944.0187339782715
4967,4944.929726839066
4968,4945.859719276428
4969,4946.787712097168
4970,4947.733704566956
4971,4948.69769692421
4972,4949.678689002991
4973,4950.642681360245
4974,4951.5416741371155
4975,4952.421667337418
4976,4953.338660001755
4977,4954.290652513504
4978,4955.275644540787
4979,4956.298636436462
4980,4957.334628105164
4981,4958.379619836807
4982,4959.403611898422
4983,4960.395603895187
4984,4961.375596046448
4985,4962.377588272095
4986,4963.429579734802
4987,4964.472571611404
4988,4965.513563156128
4989,4966.597554683685
4990,4967.735545635223
4991,4968.879536628723
4992,4969.980527877808
4993,4971.092519044876
4994,4972.214509963989
4995,4973.326501131058
4996,4974.387492895126
4997,4975.414484739304
4998,4976.458476305008
4999,4977.521467924118
5000,4978.58745932579
5001,4979.673450708389
5002,4980.756442308426
5003,4981.807433843613
5004,4982.86242556572
5005,4983.929416894913
5006,4985.002408504486
5007,4986.066400051117
5008,4987.105391740799
5009,4988.140383481979
5010,4989.20437502861
5011,4990.296366453171
5012,4991.430357456207
5013,4992.5213487148285
5014,4993.580340385437
5015,4994.665331840515
5016,4995.755323171616
5017,4996.784314870834
5018,4997.795306921005
5019,4998.826298713684
5020,4999.881290197372
5021,5000.927282094955
5022,5001.940274000168
5023,5002.964265823364
5024,5003.993257761002
5025,5005.02224946022
5026,5006.017241477966
5027,5007.042233467102
5028,5008.093225002289
5029,5009.154216766357
5030,5010.203208446503
5031,5011.270199775696
5032,5012.367191076279
5033,5013.490182161331
5034,5014.5611736774445
5035,5015.6331651210785
5036,5016.737156391144
5037,5017.847147703171
5038,5018.969138622284
5039,5020.0501301288605
5040,5021.0781219005585
5041,5022.102113723755
5042,5023.146105527878
5043,5024.199097156525
5044,5025.284088611603
5045,5026.354079961777
5046,5027.393071889877
5047,5028.43506360054
5048,5029.492055177689
5049,5030.565046548843
5050,5031.633038043976
5051,5032.706029653549
5052,5033.8100209236145
5053,5034.908012151718
5054,5035.983003616333
5055,5036.9979956150055
5056,5037.956987857819
5057,5038.952980041504
5058,5039.969971895218
5059,5040.9269642829895
5060,5041.885956764221
5061,5042.830949306488
5062,5043.753941774368
5063,5044.6399347782135
5064,5045.50092792511
5065,5046.332921504974
5066,5047.155914783478
5067,5047.962908506393
5068,5048.757902145386
5069,5049.541895866394
5070,5050.32088971138
5071,5051.088883638382
5072,5051.8498775959015
5073,5052.586871623993
5074,5053.324865818024
5075,5054.054860115051
5076,5054.776854276657
5077,5055.500848531723
5078,5056.2178428173065
5079,5056.931837320328
5080,5057.659831523895
5081,5058.392825603485
5082,5059.135819673538
5083,5059.878813743591
5084,5060.6568076610565
5085,5061.475801229477
5086,5062.340794324875
5087,5063.227787256241
5088,5064.09378027916
5089,5065.009773015976
5090,5065.945765733719
5091,5066.858758449554
5092,5067.794750928879
5093,5068.746743440628
5094,5075.396267175674
5095,5076.262267112732
5096,5077.291267156601
5097,5078.167267084122
5098,5079.035267114639
5099,5079.88226723671
5100,5080.705267190933
5101,5081.527267217636
5102,5082.399267196655
5103,5083.294267177582
5104,5084.1592671871185
5105,5085.047267198563
5106,5085.921267271042
5107,5086.9317672252655
5108,5087.942267179489
5109,5089.763267278671
