,ECG_peaks
0,0.0
1,0.7510037422180176
2,1.5000073909759521
3,2.2520110607147217
4,3.005014657974243
5,3.7620182037353516
6,4.520021915435791
7,5.2740256786346436
8,6.025029182434082
9,6.779032945632935
10,7.53403639793396
11,8.301040172576904
12,9.061043977737427
13,9.811047554016113
14,10.559051036834717
15,11.305054664611816
16,12.037058353424072
17,12.760061740875244
18,13.482065200805664
19,14.207068681716919
20,14.935072183609009
21,15.669075727462769
22,16.415079355239868
23,17.1620831489563
24,17.904086589813232
25,18.650090217590332
26,19.38809370994568
27,20.1170973777771
28,20.843100786209106
29,21.566104412078857
30,22.29010772705078
31,23.014111280441284
32,23.743114948272705
33,24.482118368148804
34,25.21412205696106
35,25.94812560081482
36,26.678128957748413
37,27.414132595062256
38,28.152136087417603
39,28.8961398601532
40,29.634143352508545
41,30.374146938323975
42,31.126150608062744
43,31.872154235839844
44,32.6281578540802
45,33.383161544799805
46,34.136165142059326
47,34.89216876029968
48,35.64917230606079
49,36.404175996780396
50,37.15217971801758
51,37.90118336677551
52,38.65218687057495
53,39.3971905708313
54,40.18519425392151
55,40.971198081970215
56,41.75520181655884
57,42.53220558166504
58,43.306209325790405
59,44.09121322631836
60,44.871217012405396
61,45.653220653533936
62,46.42222452163696
63,47.19022822380066
64,47.96723198890686
65,48.7472357749939
66,49.5332396030426
67,50.32424330711365
68,51.1092472076416
69,51.88825082778931
70,52.66025471687317
71,53.422258377075195
72,54.18126201629639
73,54.93626570701599
74,55.68726921081543
75,56.437272787094116
76,57.19127655029297
77,57.94328022003174
78,58.69728374481201
79,59.44928741455078
80,60.19529104232788
81,60.95129466056824
82,61.72129845619202
83,62.48830223083496
84,63.25030589103699
85,64.01230955123901
86,64.78531312942505
87,65.55531692504883
88,66.32132053375244
89,67.08532428741455
90,67.84332799911499
91,68.60433173179626
92,69.35833525657654
93,70.10933899879456
94,70.85634255409241
95,71.6023461818695
96,72.34934973716736
97,73.10435342788696
98,73.86335706710815
99,74.62236070632935
100,75.38036441802979
101,76.13936805725098
102,76.90437173843384
103,77.6673755645752
104,78.42937922477722
105,79.18438291549683
106,79.93638634681702
107,80.68839001655579
108,81.44039368629456
109,82.19239735603333
110,82.94840097427368
111,83.70640468597412
112,84.46640825271606
113,85.222412109375
114,85.97841572761536
115,86.73741936683655
116,87.48642301559448
117,88.22842645645142
118,88.97743010520935
119,89.7314338684082
120,90.49243760108948
121,91.26044130325317
122,92.02544498443604
123,92.7904486656189
124,93.56645226478577
125,94.33145594596863
126,95.10145974159241
127,95.87346339225769
128,96.64246726036072
129,97.41047096252441
130,98.17547464370728
131,98.9464783668518
132,99.71648216247559
133,100.48648571968079
134,101.25448942184448
135,102.02549314498901
136,102.80349707603455
137,103.57450079917908
138,104.34250450134277
139,105.10250806808472
140,105.8595118522644
141,106.61551547050476
142,107.36951899528503
143,108.11752271652222
144,108.86452627182007
145,109.60952997207642
146,110.35553359985352
147,111.09853720664978
148,111.8535406589508
149,112.60854434967041
150,113.3585479259491
151,114.12455177307129
152,114.90055537223816
153,115.66655921936035
154,116.44556283950806
155,117.22356677055359
156,118.0095705986023
157,118.79557418823242
158,119.58857822418213
159,120.37858200073242
160,121.16758584976196
161,121.96558952331543
162,122.76759338378906
163,123.57259750366211
164,124.37660121917725
165,125.19060516357422
166,125.99660921096802
167,126.79561305046082
168,127.60161685943604
169,128.41862082481384
170,129.24462485313416
171,130.06362867355347
172,130.8946328163147
173,131.71963667869568
174,132.52964067459106
175,133.3406445980072
176,134.15564846992493
177,134.96865248680115
178,135.76565623283386
179,136.5526602268219
180,137.34766387939453
181,138.1376678943634
182,138.92867159843445
183,139.717675447464
184,140.49567914009094
185,141.27968287467957
186,142.05368661880493
187,142.82069039344788
188,143.57869410514832
189,144.33069777488708
190,145.07770133018494
191,145.82270503044128
192,146.56770849227905
193,147.31571221351624
194,148.05971574783325
195,148.8047194480896
196,149.54572296142578
197,150.2877266407013
198,151.03073000907898
199,151.76973366737366
200,152.51173734664917
201,153.24774074554443
202,153.98374438285828
203,154.71574783325195
204,155.45075154304504
205,156.17975497245789
206,156.9107584953308
207,157.64376211166382
208,158.37876558303833
209,159.12776923179626
210,159.88477301597595
211,160.64777660369873
212,161.42678046226501
213,162.21278405189514
214,163.00978803634644
215,163.81279182434082
216,164.6027956008911
217,165.38579940795898
218,166.16480326652527
219,166.94380712509155
220,167.71481084823608
221,168.4898145198822
222,169.27281832695007
223,170.06482219696045
224,170.87482595443726
225,171.6598298549652
226,172.45283365249634
227,173.25183749198914
228,174.04884147644043
229,174.85284519195557
230,175.65684914588928
231,176.44485306739807
232,177.23685669898987
233,178.02686071395874
234,178.80586433410645
235,179.58086800575256
236,180.345871925354
237,181.1138756275177
238,181.87387919425964
239,182.63588285446167
240,183.3958866596222
241,184.15589022636414
242,184.9188938140869
243,185.68589758872986
244,186.46690130233765
245,187.22690510749817
246,187.99090886116028
247,188.74491238594055
248,189.48891592025757
249,190.22791957855225
250,190.95392298698425
251,191.67492651939392
252,192.35492992401123
253,193.03493309020996
254,193.704936504364
255,194.37093949317932
256,195.03394269943237
257,195.69494605064392
258,196.3649492263794
259,197.0269525051117
260,197.70295572280884
261,198.3709590435028
262,199.0369622707367
263,199.7119653224945
264,200.3849687576294
265,201.05597186088562
266,201.73197507858276
267,202.4079785346985
268,203.07498168945312
269,203.74398493766785
270,204.40598821640015
271,205.0619912147522
272,205.72099447250366
273,206.36899757385254
274,207.01800084114075
275,207.6610038280487
276,208.29800701141357
277,208.93500995635986
278,209.57301306724548
279,210.21201610565186
280,210.8460192680359
281,211.48002219200134
282,212.11302542686462
283,212.7430284023285
284,213.38203144073486
285,214.01903462409973
286,214.6580376625061
287,215.28804063796997
288,215.92804384231567
289,216.56504678726196
290,217.20155000686646
291,217.83805298805237
292,218.46605610847473
293,219.09805917739868
294,219.72606205940247
295,220.34306526184082
296,220.97206807136536
297,221.59507131576538
298,222.2170741558075
299,222.8370771408081
300,223.46608018875122
301,224.09408330917358
302,224.72008633613586
303,225.3450894355774
304,225.9670922756195
305,226.5930953025818
306,227.21509838104248
307,227.83410143852234
308,228.45710444450378
309,229.08210730552673
310,229.72411060333252
311,230.3561134338379
312,230.98211646080017
313,231.60411953926086
314,232.2291226387024
315,232.85412573814392
316,233.47212862968445
317,234.0931315422058
318,234.71313452720642
319,235.3281376361847
320,235.94214057922363
321,236.5591435432434
322,237.17314648628235
323,237.7871494293213
324,238.40815258026123
325,239.02415537834167
326,239.6401584148407
327,240.2641613483429
328,240.88916444778442
329,241.5191674232483
330,242.1551706790924
331,242.79817366600037
332,243.4431767463684
333,244.08817982673645
334,244.74518299102783
335,245.40618634223938
336,246.0681893825531
337,246.7301926612854
338,247.39319586753845
339,248.06319904327393
340,248.73220229148865
341,249.3952054977417
342,250.0612087249756
343,250.73421216011047
344,251.40621519088745
345,252.07521843910217
346,252.75722193717957
347,253.44422507286072
348,254.13422846794128
349,254.83223176002502
350,255.5402352809906
351,256.24723863601685
352,256.9522421360016
353,257.6522455215454
354,258.3492488861084
355,259.0422523021698
356,259.7372555732727
357,260.4292588233948
358,261.12326216697693
359,261.82326555252075
360,262.53426909446716
361,263.2412724494934
362,263.9452760219574
363,264.65927934646606
364,265.3732829093933
365,266.0682861804962
366,266.75928950309753
367,267.45429277420044
368,268.144296169281
369,268.8352994918823
370,269.5303030014038
371,270.22330617904663
372,270.91630959510803
373,271.6043128967285
374,272.28231620788574
375,272.96831941604614
376,273.6563229560852
377,274.34332609176636
378,275.0433294773102
379,275.75533294677734
380,276.4693365097046
381,277.20334005355835
382,277.9373435974121
383,278.6763470172882
384,279.4293508529663
385,280.1833543777466
386,280.93035793304443
387,281.68336176872253
388,282.41836524009705
389,283.15536880493164
390,283.911372423172
391,284.6463758945465
392,285.38037943840027
393,286.11538314819336
394,286.84138655662537
395,287.5813901424408
396,288.33039379119873
397,289.0663974285126
398,289.80240082740784
399,290.5374045372009
400,291.2624080181122
401,291.99641156196594
402,292.7154150009155
403,293.4434185028076
404,294.18342208862305
405,294.9104256629944
406,295.64442920684814
407,296.37543272972107
408,297.1004362106323
409,297.8284397125244
410,298.5614433288574
411,299.28144669532776
412,300.0084502696991
413,300.7364537715912
414,301.4584572315216
415,302.1844606399536
416,302.9174642562866
417,303.63746786117554
418,304.3584711551666
419,305.07847476005554
420,305.79347825050354
421,306.5124816894531
422,307.23848509788513
423,307.974488735199
424,308.70249223709106
425,309.4494957923889
426,310.17649936676025
427,310.90850281715393
428,311.6475064754486
429,312.37051010131836
430,313.09351348876953
431,313.8225169181824
432,314.5425205230713
433,315.27452397346497
434,316.0085275173187
435,316.7315311431885
436,317.45053458213806
437,318.16753792762756
438,318.88054156303406
439,319.59754490852356
440,320.31254839897156
441,321.0215518474579
442,321.7345552444458
443,322.45055866241455
444,323.1585621833801
445,323.8745656013489
446,324.5875689983368
447,325.2935724258423
448,326.00057578086853
449,326.70757937431335
450,327.41358280181885
451,328.1225860118866
452,328.8355896472931
453,329.54559302330017
454,330.26059651374817
455,330.97560000419617
456,331.7006034851074
457,332.42060685157776
458,333.145610332489
459,333.86861395835876
460,334.59261751174927
461,335.319620847702
462,336.0386242866516
463,336.7576279640198
464,337.47863125801086
465,338.2126348018646
466,338.9426383972168
467,339.6746418476105
468,340.4076454639435
469,341.1346490383148
470,341.8676526546478
471,342.59865617752075
472,343.32865953445435
473,344.0536630153656
474,344.7776665687561
475,345.4996700286865
476,346.2206735610962
477,346.9426770210266
478,347.66568064689636
479,348.3926842212677
480,349.12568759918213
481,349.8576912879944
482,350.5886948108673
483,351.3166983127594
484,352.0407016277313
485,352.7747051715851
486,353.5077087879181
487,354.2337124347687
488,354.95471572875977
489,355.679719209671
490,356.40172290802
491,357.1247262954712
492,357.84572982788086
493,358.5677332878113
494,359.28373670578003
495,360.0097403526306
496,360.72574377059937
497,361.4307470321655
498,362.1447505950928
499,362.85475397109985
500,363.56575751304626
501,364.2747609615326
502,364.9847643375397
503,365.6977677345276
504,366.4107711315155
505,367.1297745704651
506,367.8517782688141
507,368.5737817287445
508,369.3057851791382
509,370.04678869247437
510,370.7917923927307
511,371.53179597854614
512,372.2737994194031
513,372.9968030452728
514,373.72080659866333
515,374.43881011009216
516,375.15081334114075
517,375.8608169555664
518,376.57182025909424
519,377.27782368659973
520,377.9828271865845
521,378.69083046913147
522,379.3928339481354
523,380.0888373851776
524,380.78684067726135
525,381.47984409332275
526,382.16784739494324
527,382.84985065460205
528,383.5488541126251
529,384.2458574771881
530,384.94386076927185
531,385.6468641757965
532,386.3438675403595
533,387.0458710193634
534,387.7518744468689
535,388.4638776779175
536,389.17188119888306
537,389.8748846054077
538,390.5788879394531
539,391.2868914604187
540,391.99589490890503
541,392.703898191452
542,393.41090178489685
543,394.1069049835205
544,394.79390835762024
545,395.4659116268158
546,396.1389148235321
547,396.8149182796478
548,397.50892162323
549,398.20992493629456
550,398.90692830085754
551,399.6159317493439
552,400.3269350528717
553,401.0329384803772
554,401.74694204330444
555,402.4589455127716
556,403.16794896125793
557,403.8729522228241
558,404.57795572280884
559,405.28395915031433
560,405.9939625263214
561,406.7039659023285
562,407.40496945381165
563,408.1139726638794
564,408.8249762058258
565,409.53897976875305
566,410.25098299980164
567,410.96398663520813
568,411.68399000167847
569,412.39599347114563
570,413.10899686813354
571,413.83100032806396
572,414.5490038394928
573,415.2600073814392
574,415.9750108718872
575,416.6790142059326
576,417.383017539978
577,418.08502101898193
578,418.7750244140625
579,419.46402764320374
580,420.15703105926514
581,420.85203433036804
582,421.5420377254486
583,422.22904109954834
584,422.9180443286896
585,423.61004757881165
586,424.30505108833313
587,425.00005435943604
588,425.697057723999
589,426.3980612754822
590,427.1000645160675
591,427.81206798553467
592,428.521071434021
593,429.2210748195648
594,429.9290783405304
595,430.64508175849915
596,431.36008524894714
597,432.06808853149414
598,432.77209186553955
599,433.47609543800354
600,434.18009877204895
601,434.87710213661194
602,435.576105594635
603,436.27810883522034
604,436.970112323761
605,437.66211557388306
606,438.3601188659668
607,439.045122385025
608,439.7371256351471
609,440.4281289577484
610,441.11113238334656
611,441.8001356124878
612,442.48513889312744
613,443.1701421737671
614,443.86014556884766
615,444.54614877700806
616,445.23515224456787
617,445.9221556186676
618,446.60515880584717
619,447.3011622428894
620,447.99516558647156
621,448.6861689090729
622,449.3811721801758
623,450.0721755027771
624,450.76417899131775
625,451.45518231391907
626,452.14518570899963
627,452.8411889076233
628,453.53319239616394
629,454.22819566726685
630,454.91919898986816
631,455.608202457428
632,456.30420565605164
633,456.99720907211304
634,457.6892123222351
635,458.3772156238556
636,459.06521916389465
637,459.7572224140167
638,460.44822573661804
639,461.13922905921936
640,461.8302323818207
641,462.5222358703613
642,463.21523904800415
643,463.90624237060547
644,464.5972456932068
645,465.293249130249
646,465.99125242233276
647,466.6942558288574
648,467.38825941085815
649,468.0882625579834
650,468.77526593208313
651,469.4562692642212
652,470.13527250289917
653,470.81427574157715
654,471.4842791557312
655,472.1502823829651
656,472.82228565216064
657,473.49028873443604
658,474.16329193115234
659,474.83629536628723
660,475.5132985115051
661,476.1903018951416
662,476.865305185318
663,477.5463082790375
664,478.22331166267395
665,478.904314994812
666,479.5883183479309
667,480.27532148361206
668,480.9533247947693
669,481.6443281173706
670,482.3303315639496
671,483.01633477211
672,483.70433807373047
673,484.3983414173126
674,485.0883448123932
675,485.7853481769562
676,486.4783515930176
677,487.171355009079
678,487.85035824775696
679,488.53236150741577
680,489.21336483955383
681,489.8853681087494
682,490.552371263504
683,491.2223744392395
684,491.91637778282166
685,492.60238122940063
686,493.2903845310211
687,493.98438787460327
688,494.66539120674133
689,495.35439443588257
690,496.02939772605896
691,496.70440101623535
692,497.3804042339325
693,498.0494074821472
694,498.72741079330444
695,499.4074139595032
696,500.0994174480438
697,500.7844207286835
698,501.4774241447449
699,502.1794273853302
700,502.87543082237244
701,503.576434135437
702,504.280437707901
703,504.9804410934448
704,505.6764442920685
705,506.3724477291107
706,507.0804512500763
707,507.77245450019836
708,508.46545791625977
709,509.15346121788025
710,509.84146451950073
711,510.5294678211212
712,511.22047114372253
713,511.91147446632385
714,512.6014778614044
715,513.2834811210632
716,513.9694845676422
717,514.6544878482819
718,515.3354909420013
719,516.0124943256378
720,516.6924977302551
721,517.3725008964539
722,518.0635042190552
723,518.7505075931549
724,519.4395108222961
725,520.1265141963959
726,520.8215174674988
727,521.5235209465027
728,522.2245242595673
729,522.9195277690887
730,523.6125309467316
731,524.305534362793
732,524.9955377578735
733,525.683541059494
734,526.3745443820953
735,527.0685477256775
736,527.7675511837006
737,528.4575545787811
738,529.1495578289032
739,529.8335611820221
740,530.5165643692017
741,531.196567773819
742,531.8785710334778
743,532.5585741996765
744,533.2405776977539
745,533.9155807495117
746,534.5925841331482
747,535.274587392807
748,535.9465906620026
749,536.621593952179
750,537.2995972633362
751,537.981600522995
752,538.662603855133
753,539.3446071147919
754,540.0236103534698
755,540.706613779068
756,541.385617017746
757,542.0636203289032
758,542.7466235160828
759,543.4286267757416
760,544.1066300868988
761,544.782633304596
762,545.4536366462708
763,546.1286399364471
764,546.8006432056427
765,547.4766464233398
766,548.1466495990753
767,548.8096528053284
768,549.4736561775208
769,550.1356592178345
770,550.7946624755859
771,551.457665681839
772,552.1216688156128
773,552.7856721878052
774,553.4516754150391
775,554.110678434372
776,554.7706816196442
777,555.423684835434
778,556.068687915802
779,556.7096910476685
780,557.3476941585541
781,557.9816970825195
782,558.6187002658844
783,559.25670337677
784,559.8987064361572
785,560.5407094955444
786,561.1847126483917
787,561.828715801239
788,562.4747188091278
789,563.1197221279144
790,563.766725063324
791,564.4117283821106
792,565.0547313690186
793,565.6987345218658
794,566.3447375297546
795,566.9897408485413
796,567.63374376297
797,568.2797470092773
798,568.9187500476837
799,569.5547530651093
800,570.1927561759949
801,570.8327593803406
802,571.4777624607086
803,572.1277656555176
804,572.7787687778473
805,573.4277718067169
806,574.0807750225067
807,574.735778093338
808,575.3937814235687
809,576.0477845668793
810,576.7107877731323
811,577.377790927887
812,578.0547943115234
813,578.737797498703
814,579.4198007583618
815,580.1078040599823
816,580.792807340622
817,581.4768106937408
818,582.1558139324188
819,582.8348174095154
820,583.5088205337524
821,584.1868238449097
822,584.859827041626
823,585.5338304042816
824,586.2028336524963
825,586.8708367347717
826,587.5478401184082
827,588.2178432941437
828,588.8868465423584
829,589.560849905014
830,590.2268531322479
831,590.8978562355042
832,591.5698595046997
833,592.2448627948761
834,592.9178659915924
835,593.5908694267273
836,594.286872625351
837,594.9768760204315
838,595.6668794155121
839,596.3568825721741
840,597.0348858833313
841,597.7148892879486
842,598.3978924751282
843,599.0778958797455
844,599.7598991394043
845,600.446902513504
846,601.1399056911469
847,601.8219091892242
848,602.5059123039246
849,603.1909158229828
850,603.879919052124
851,604.5709223747253
852,605.2539258003235
853,605.9339289665222
854,606.6109323501587
855,607.2899355888367
856,607.9719388484955
857,608.6579420566559
858,609.3359453678131
859,610.019948720932
860,610.6999521255493
861,611.3789553642273
862,612.058958530426
863,612.7389619350433
864,613.4189651012421
865,614.1009683609009
866,614.7819716930389
867,615.4699749946594
868,616.15997838974
869,616.840981721878
870,617.5229849815369
871,618.2049882411957
872,618.884991645813
873,619.5709948539734
874,620.2499980926514
875,620.9310014247894
876,621.6090047359467
877,622.2990081310272
878,622.986011505127
879,623.6770148277283
880,624.3660180568695
881,625.0610213279724
882,625.7560248374939
883,626.4610280990601
884,627.15203166008
885,627.8460350036621
886,628.5310382843018
887,629.2170414924622
888,629.9050447940826
889,630.5940482616425
890,631.2810513973236
891,631.9680547714233
892,632.6570582389832
893,633.3410613536835
894,634.0220646858215
895,634.7060680389404
896,635.3840713500977
897,636.0650746822357
898,636.7500779628754
899,637.4380812644958
900,638.1220846176147
901,638.800087928772
902,639.47909116745
903,640.1650943756104
904,640.8490977287292
905,641.5291011333466
906,642.2091042995453
907,642.8891077041626
908,643.5691108703613
909,644.2571141719818
910,644.9491176605225
911,645.637120962143
912,646.3271241188049
913,647.0141274929047
914,647.6991307735443
915,648.3821341991425
916,649.0631375312805
917,649.7441408634186
918,650.4251439571381
919,651.1081473827362
920,651.7851505279541
921,652.4661538600922
922,653.1441571712494
923,653.8251605033875
924,654.5001637935638
925,655.1771669387817
926,655.8621702194214
927,656.5401735305786
928,657.2171769142151
929,657.9001801013947
930,658.5891835689545
931,659.2701869010925
932,659.9491901397705
933,660.6321933269501
934,661.3151967525482
935,661.9991998672485
936,662.69420337677
937,663.3822066783905
938,664.0692100524902
939,664.7552132606506
940,665.4312164783478
941,666.109219789505
942,666.7842230796814
943,667.4592263698578
944,668.1342296600342
945,668.8022329807281
946,669.4732360839844
947,670.1482393741608
948,670.826242685318
949,671.4982459545135
950,672.1722490787506
951,672.8502523899078
952,673.5212557315826
953,674.1902589797974
954,674.8632621765137
955,675.53626537323
956,676.2082686424255
957,676.8812718391418
958,677.5632750988007
959,678.2402784824371
960,678.9202818870544
961,679.5952849388123
962,680.2702882289886
963,680.9532916545868
964,681.6342949867249
965,682.3112981319427
966,682.9853014945984
967,683.6583046913147
968,684.3293080329895
969,685.0013110637665
970,685.6773145198822
971,686.3483176231384
972,687.0253210067749
973,687.6963241100311
974,688.3673274517059
975,689.0373306274414
976,689.7073338031769
977,690.37233710289
978,691.0413403511047
979,691.7083435058594
980,692.3853468894958
981,693.0583500862122
982,693.7323534488678
983,694.403356552124
984,695.071359872818
985,695.7433631420135
986,696.4093663692474
987,697.0753695964813
988,697.7383728027344
989,698.4063758850098
990,699.0653791427612
991,699.729382276535
992,700.3983855247498
993,701.0613887310028
994,701.7263920307159
995,702.3933951854706
996,703.0643985271454
997,703.7354016304016
998,704.4044048786163
999,705.0744082927704
1000,705.7394113540649
1001,706.4114146232605
1002,707.072417974472
1003,707.7374210357666
1004,708.4074242115021
1005,709.0794274806976
1006,709.7524309158325
1007,710.4184341430664
1008,711.0894372463226
1009,711.7574405670166
1010,712.4294438362122
1011,713.1004469394684
1012,713.7704501152039
1013,714.4384534358978
1014,715.1054565906525
1015,715.777459859848
1016,716.445463180542
1017,717.1124663352966
1018,717.7814695835114
1019,718.455472946167
1020,719.129476070404
1021,719.7994794845581
1022,720.4714825153351
1023,721.139485836029
1024,721.8084890842438
1025,722.4784922599792
1026,723.1514956951141
1027,723.8204987049103
1028,724.4945020675659
1029,725.1585052013397
1030,725.8225085735321
1031,726.4845116138458
1032,727.1455149650574
1033,727.8075180053711
1034,728.4695212841034
1035,729.1295244693756
1036,729.7905275821686
1037,730.4515309333801
1038,731.1115341186523
1039,731.7725372314453
1040,732.4335403442383
1041,733.0925436019897
1042,733.752546787262
1043,734.4135499000549
1044,735.0755531787872
1045,735.7355563640594
1046,736.4025595188141
1047,737.0665628910065
1048,737.7355661392212
1049,738.3985693454742
1050,739.0615725517273
1051,739.7205755710602
1052,740.3925788402557
1053,741.0575821399689
1054,741.6985852718353
1055,742.3385882377625
1056,742.9985914230347
1057,743.6515946388245
1058,744.305597782135
1059,744.9596009254456
1060,745.6106040477753
1061,746.2576072216034
1062,746.9026103019714
1063,747.5416135787964
1064,748.1716165542603
1065,748.8016195297241
1066,749.4326226711273
1067,750.0626256465912
1068,750.6916286945343
1069,751.3276317119598
1070,751.9606349468231
1071,752.5936379432678
1072,753.2206408977509
1073,753.8536438941956
1074,754.483647108078
1075,755.1046500205994
1076,755.7226529121399
1077,756.3366560935974
1078,756.9516589641571
1079,757.5616619586945
1080,758.1706647872925
1081,758.777667760849
1082,759.3896708488464
1083,760.002673625946
1084,760.6156766414642
1085,761.2296795845032
1086,761.8446826934814
1087,762.4666855335236
1088,763.0776884555817
1089,763.69469165802
1090,764.303694486618
1091,764.9156973361969
1092,765.5197002887726
1093,766.1287033557892
1094,766.7357063293457
1095,767.3487091064453
1096,767.9567122459412
1097,768.56871509552
1098,769.1797180175781
1099,769.7927210330963
1100,770.4067239761353
1101,771.0227270126343
1102,771.6367299556732
1103,772.2487328052521
1104,772.8627359867096
1105,773.483738899231
1106,774.1037418842316
1107,774.7237448692322
1108,775.340747833252
1109,775.9627509117126
1110,776.5877537727356
1111,777.2147569656372
1112,777.8457598686218
1113,778.4727630615234
1114,779.1007659435272
1115,779.7277691364288
1116,780.3547720909119
1117,780.9817750453949
1118,781.6137781143188
1119,782.2457811832428
1120,782.8757841587067
1121,783.5057873725891
1122,784.1387903690338
1123,784.7737934589386
1124,785.4097964763641
1125,786.046799659729
1126,786.6778025627136
1127,787.3078057765961
1128,787.9408087730408
1129,788.5808117389679
1130,789.2188148498535
1131,789.8608181476593
1132,790.4978210926056
1133,791.1348242759705
1134,791.7728273868561
1135,792.4128303527832
1136,793.0598335266113
1137,793.7118365764618
1138,794.3658397197723
1139,795.0248429775238
1140,795.684846162796
1141,796.3408493995667
1142,796.9988524913788
1143,797.6528556346893
1144,798.30885887146
1145,798.9578619003296
1146,799.616865158081
1147,800.277868270874
1148,800.9298715591431
1149,801.5828747749329
1150,802.2428779602051
1151,802.9068810939789
1152,803.5708842277527
1153,804.2318875789642
1154,804.893890619278
1155,805.5618939399719
1156,806.2318971157074
1157,806.9139003753662
1158,807.5939037799835
1159,808.2709069252014
1160,808.9419102668762
1161,809.6199135780334
1162,810.2999167442322
1163,810.9839200973511
1164,811.6719233989716
1165,812.3579268455505
1166,813.0399301052094
1167,813.7239334583282
1168,814.4109365940094
1169,815.0999400615692
1170,815.7839434146881
1171,816.4649467468262
1172,817.1479499340057
1173,817.8319532871246
1174,818.5139565467834
1175,819.1949598789215
1176,819.8749630451202
1177,820.5559663772583
1178,821.2349696159363
1179,821.9139728546143
1180,822.5909762382507
1181,823.2629795074463
1182,823.9329826831818
1183,824.6029858589172
1184,825.271989107132
1185,825.9469923973083
1186,826.6229956150055
1187,827.3029990196228
1188,827.9820022583008
1189,828.6620056629181
1190,829.3450088500977
1191,830.0310122966766
1192,830.7270154953003
1193,831.4210188388824
1194,832.1210222244263
1195,832.8220257759094
1196,833.5220291614532
1197,834.2210323810577
1198,834.9270358085632
1199,835.6370391845703
1200,836.3500428199768
1201,837.0600461959839
1202,837.7850496768951
1203,838.5050532817841
1204,839.2150566577911
1205,839.9210600852966
1206,840.6390635967255
1207,841.3550670146942
1208,842.073070526123
1209,842.7870738506317
1210,843.5070774555206
1211,844.2310807704926
1212,844.9460842609406
1213,845.6550877094269
1214,846.3630912303925
1215,847.069094657898
1216,847.7680978775024
1217,848.4701013565063
1218,849.173104763031
1219,849.8901081085205
1220,850.6011116504669
1221,851.3051149845123
1222,852.0211184024811
1223,852.7421219348907
1224,853.4611253738403
1225,854.1691288948059
1226,854.8881323337555
1227,855.6161358356476
1228,856.3421394824982
1229,857.0641429424286
1230,857.7871463298798
1231,858.519150018692
1232,859.2461533546448
1233,859.9661569595337
1234,860.6831603050232
1235,861.399163722992
1236,862.1151673793793
1237,862.8251707553864
1238,863.5311741828918
1239,864.2401776313782
1240,864.9591810703278
1241,865.6811845302582
1242,866.4001879692078
1243,867.1181914806366
1244,867.8471949100494
1245,868.5731985569
1246,869.2942020893097
1247,870.0082054138184
1248,870.7322089672089
1249,871.4492123126984
1250,872.159215927124
1251,872.8632192611694
1252,873.5662226676941
1253,874.2622261047363
1254,874.9632294178009
1255,875.6582326889038
1256,876.3602361679077
1257,877.0612394809723
1258,877.7682428359985
1259,878.4822463989258
1260,879.1872498989105
1261,879.9012532234192
1262,880.6512567996979
1263,881.3712604045868
1264,882.0802638530731
1265,882.7782671451569
1266,883.4732704162598
1267,884.1752738952637
1268,884.8792772293091
1269,885.5852806568146
1270,886.2912840843201
1271,887.0032875537872
1272,887.7202911376953
1273,888.4482946395874
1274,889.185298204422
1275,889.9333016872406
1276,890.6753053665161
1277,891.4133088588715
1278,892.1493124961853
1279,892.9033160209656
1280,893.6703197956085
1281,894.4323234558105
1282,895.1873271465302
1283,895.9453308582306
1284,896.6763343811035
1285,897.4043378829956
1286,898.1293413639069
1287,898.8673448562622
1288,899.5943484306335
1289,900.3233518600464
1290,901.049355506897
1291,901.7923591136932
1292,902.5273625850677
1293,903.2433660030365
1294,903.956369638443
1295,904.6743729114532
1296,905.3953764438629
1297,906.1213800907135
1298,906.8523836135864
1299,907.589387178421
1300,908.3293907642365
1301,909.0693943500519
1302,909.7993977069855
1303,910.5224013328552
1304,911.2324047088623
1305,911.9454081058502
1306,912.6594116687775
1307,913.3704149723053
1308,914.0874185562134
1309,914.8004219532013
1310,915.5144255161285
1311,916.231428861618
1312,916.9524323940277
1313,917.6894359588623
1314,918.4344394207001
1315,919.1744430065155
1316,919.9184467792511
1317,920.6554503440857
1318,921.3794536590576
1319,922.1054573059082
1320,922.850460767746
1321,923.5964643955231
1322,924.3394680023193
1323,925.0744717121124
1324,925.8024752140045
1325,926.5404787063599
1326,927.2744822502136
1327,928.0134859085083
1328,928.7434892654419
1329,929.4644927978516
1330,930.1854963302612
1331,930.9164998531342
1332,931.6575033664703
1333,932.3905069828033
1334,933.1125104427338
1335,933.8235139846802
1336,934.5355174541473
1337,935.2665209770203
1338,935.9995243549347
1339,936.7275278568268
1340,937.4555313587189
1341,938.1915349960327
1342,938.934538602829
1343,939.6725420951843
1344,940.4065456390381
1345,941.1435492038727
1346,941.8805527687073
1347,942.621556520462
1348,943.3445599079132
1349,944.0705635547638
1350,944.793566942215
1351,945.5165703296661
1352,946.2275738716125
1353,946.9375772476196
1354,947.6505806446075
1355,948.3555841445923
1356,949.0655875205994
1357,949.786591053009
1358,950.506594657898
1359,951.2315981388092
1360,951.9576015472412
1361,952.6946051120758
1362,953.4376087188721
1363,954.1776123046875
1364,954.9166159629822
1365,955.6526193618774
1366,956.394623041153
1367,957.1366264820099
1368,957.8726301193237
1369,958.6176338195801
1370,959.3676373958588
1371,960.1146409511566
1372,960.8536446094513
1373,961.5906481742859
1374,962.3336517810822
1375,963.0776553153992
1376,963.8176589012146
1377,964.5566625595093
1378,965.2966661453247
1379,966.0436697006226
1380,966.7756731510162
1381,967.498676776886
1382,968.2166800498962
1383,968.9326837062836
1384,969.6456871032715
1385,970.3546905517578
1386,971.0716938972473
1387,971.7866973876953
1388,972.4987008571625
1389,973.2137043476105
1390,973.9457077980042
1391,974.6797113418579
1392,975.4107148647308
1393,976.1437184810638
1394,976.8697218894958
1395,977.5937254428864
1396,978.3097288608551
1397,979.0307323932648
1398,979.760735988617
1399,980.4917395114899
1400,981.219743013382
1401,981.9437465667725
1402,982.6707499027252
1403,983.3987536430359
1404,984.1287569999695
1405,984.8477604389191
1406,985.5697641372681
1407,986.3057675361633
1408,987.0517711639404
1409,987.788774728775
1410,988.5157783031464
1411,989.24778175354
1412,989.9947853088379
1413,990.7317888736725
1414,991.4667925834656
1415,992.1967961788177
1416,992.932799577713
1417,993.6708033084869
1418,994.4038066864014
1419,995.1318101882935
1420,995.8658137321472
1421,996.6198174953461
1422,997.3928210735321
1423,998.1628248691559
1424,998.9188284873962
1425,999.6728322505951
1426,1000.4158358573914
1427,1001.1578392982483
1428,1001.9078431129456
1429,1002.6518466472626
1430,1003.3928501605988
1431,1004.1268537044525
1432,1004.861857175827
1433,1005.5938608646393
1434,1006.3328642845154
1435,1007.0628678798676
1436,1007.7978715896606
1437,1008.5418751239777
1438,1009.297878742218
1439,1010.046882390976
1440,1010.7958860397339
1441,1011.5408895015717
1442,1012.2828931808472
1443,1013.0258967876434
1444,1013.7699003219604
1445,1014.5159039497375
1446,1015.2689075469971
1447,1016.0209112167358
1448,1016.768914937973
1449,1017.5229184627533
1450,1018.279922246933
1451,1019.0359258651733
1452,1019.7899293899536
1453,1020.5429329872131
1454,1021.2919366359711
1455,1022.0349402427673
1456,1022.7719438076019
1457,1023.5079474449158
1458,1024.2399508953094
1459,1024.9669544696808
1460,1025.6959578990936
1461,1026.4289615154266
1462,1027.1679651737213
1463,1027.897968530655
1464,1028.6319720745087
1465,1029.3629755973816
1466,1030.0859792232513
1467,1030.8119826316833
1468,1031.5339860916138
1469,1032.2619898319244
1470,1032.991993188858
1471,1033.7209968566895
1472,1034.472000360489
1473,1035.2220039367676
1474,1035.9810078144073
1475,1036.7500114440918
1476,1037.527015209198
1477,1038.2930188179016
1478,1039.069022655487
1479,1039.8560264110565
1480,1040.645030260086
1481,1041.4260339736938
1482,1042.1940376758575
1483,1042.9670414924622
1484,1043.7380452156067
1485,1044.5070488452911
1486,1045.2810525894165
1487,1046.0430562496185
1488,1046.8020601272583
1489,1047.5560636520386
1490,1048.3200674057007
1491,1049.0860710144043
1492,1049.8460748195648
1493,1050.6040782928467
1494,1051.3680820465088
1495,1052.12708568573
1496,1052.8900895118713
1497,1053.67609333992
1498,1054.4470970630646
1499,1055.216100692749
1500,1055.9681043624878
1501,1056.7121078968048
1502,1057.4441113471985
1503,1058.2031152248383
1504,1058.9511187076569
1505,1059.6941223144531
1506,1060.430125951767
1507,1061.1551294326782
1508,1061.8821330070496
1509,1062.6051363945007
1510,1063.3241398334503
1511,1064.0431432724
1512,1064.7641468048096
1513,1065.4971504211426
1514,1066.2331538200378
1515,1066.976157426834
1516,1067.7091610431671
1517,1068.4441645145416
1518,1069.191168308258
1519,1069.95317196846
1520,1070.7031755447388
1521,1071.4501791000366
1522,1072.1931827068329
1523,1072.944186449051
1524,1073.7021899223328
1525,1074.4781937599182
1526,1075.2551975250244
1527,1076.0162012577057
1528,1076.7632048130035
1529,1077.5002083778381
1530,1078.2272119522095
1531,1078.9452154636383
1532,1079.6662187576294
1533,1080.3932223320007
1534,1081.1772260665894
1535,1081.9822299480438
1536,1082.7852339744568
1537,1083.578237771988
1538,1084.3732416629791
1539,1085.1652455329895
1540,1085.9402492046356
1541,1086.7112529277802
1542,1087.4832565784454
1543,1088.25426030159
1544,1089.0222640037537
1545,1089.7972679138184
1546,1090.5752716064453
1547,1091.3422753810883
1548,1092.1132791042328
1549,1092.8862826824188
1550,1093.6612865924835
1551,1094.443290233612
1552,1095.2332940101624
1553,1096.0212979316711
1554,1096.8143017292023
1555,1097.6093056201935
1556,1098.4053094387054
1557,1099.2063133716583
1558,1100.0143172740936
1559,1100.8153212070465
1560,1101.6133248806
1561,1102.4153287410736
1562,1103.207332611084
1563,1104.005336523056
1564,1104.8103404045105
1565,1105.6033442020416
1566,1106.3963479995728
1567,1107.1923518180847
1568,1107.9933557510376
1569,1108.7963597774506
1570,1109.612363576889
1571,1110.4273674488068
1572,1111.2323713302612
1573,1112.038375377655
1574,1112.8493793010712
1575,1113.6573832035065
1576,1114.4783871173859
1577,1115.289391040802
1578,1116.0813949108124
1579,1116.8773987293243
1580,1117.668402671814
1581,1118.44340634346
1582,1119.2204101085663
1583,1119.9894137382507
1584,1120.752417564392
1585,1121.512421131134
1586,1122.272424697876
1587,1123.036428451538
1588,1123.8134322166443
1589,1124.5924360752106
1590,1125.3704397678375
1591,1126.141443490982
1592,1126.919447183609
1593,1127.6854510307312
1594,1128.4594547748566
1595,1129.2454586029053
1596,1130.0224623680115
1597,1130.8004660606384
1598,1131.5784697532654
1599,1132.3554735183716
1600,1133.1244773864746
1601,1133.8904809951782
1602,1134.6544847488403
1603,1135.417488336563
1604,1136.1834919452667
1605,1136.9514956474304
1606,1137.7174994945526
1607,1138.4795031547546
1608,1139.2425067424774
1609,1139.9935104846954
1610,1140.7365140914917
1611,1141.4855177402496
1612,1142.2425212860107
1613,1142.9915249347687
1614,1143.7425286769867
1615,1144.5005321502686
1616,1145.2695360183716
1617,1146.027539730072
1618,1146.7915432453156
1619,1147.565546989441
1620,1148.3465509414673
1621,1149.1195545196533
1622,1149.8855583667755
1623,1150.6525619029999
1624,1151.4285657405853
1625,1152.1975693702698
1626,1152.9715731143951
1627,1153.7405769824982
1628,1154.5085806846619
1629,1155.2795844078064
1630,1156.0545880794525
1631,1156.8205919265747
1632,1157.5825955867767
1633,1158.3515992164612
1634,1159.1236028671265
1635,1159.8976066112518
1636,1160.6706104278564
1637,1161.441614151001
1638,1162.2096178531647
1639,1162.98362159729
1640,1163.7496252059937
1641,1164.5086290836334
1642,1165.2506325244904
1643,1166.0036361217499
1644,1166.767639875412
1645,1167.511643409729
1646,1168.2416470050812
1647,1168.9786505699158
1648,1169.7186541557312
1649,1170.4616577625275
1650,1171.212661266327
1651,1171.9756650924683
1652,1172.738668680191
1653,1173.4996724128723
1654,1174.287676334381
1655,1175.0806801319122
1656,1175.879683971405
1657,1176.6696877479553
1658,1177.4706916809082
1659,1178.2706954479218
1660,1179.0716993808746
1661,1179.876703262329
1662,1180.6847071647644
1663,1181.486711025238
1664,1182.2867147922516
1665,1183.0937187671661
1666,1183.889722585678
1667,1184.6797263622284
1668,1185.4637303352356
1669,1186.2387340068817
1670,1187.0117378234863
1671,1187.790741443634
1672,1188.5897452831268
1673,1189.3907492160797
1674,1190.1997530460358
1675,1190.9897570610046
1676,1191.7817606925964
1677,1192.5717647075653
1678,1193.3677685260773
1679,1194.1707723140717
1680,1194.9767763614655
1681,1195.774780035019
1682,1196.5697839260101
1683,1197.3597877025604
1684,1198.1637916564941
1685,1198.9707956314087
1686,1199.7747993469238
1687,1200.5708031654358
1688,1201.3648071289062
1689,1202.1548109054565
1690,1202.9538147449493
1691,1203.7478187084198
1692,1204.551822423935
1693,1205.3408262729645
1694,1206.1218302249908
1695,1206.9038338661194
1696,1207.6778376102448
1697,1208.4558413028717
1698,1209.2358450889587
1699,1210.0088489055634
1700,1210.7998526096344
1701,1211.5938565731049
1702,1212.391860485077
1703,1213.1858642101288
1704,1213.9728679656982
1705,1214.7668719291687
1706,1215.551875591278
1707,1216.3478796482086
1708,1217.1388833522797
1709,1217.9258871078491
1710,1218.7098910808563
1711,1219.4848947525024
1712,1220.2678985595703
1713,1221.0499022006989
1714,1221.8219060897827
1715,1222.580909729004
1716,1223.3419134616852
1717,1224.104917049408
1718,1224.8749208450317
1719,1225.6559245586395
1720,1226.4359283447266
1721,1227.220932006836
1722,1228.007936000824
1723,1228.7959396839142
1724,1229.5779435634613
1725,1230.3659472465515
1726,1231.1499509811401
1727,1231.9369549751282
1728,1232.7369587421417
1729,1233.5459625720978
1730,1234.340966463089
1731,1235.1309702396393
1732,1235.918974161148
1733,1236.7079780101776
1734,1237.499981880188
1735,1238.2879855632782
1736,1239.0799894332886
1737,1239.8599932193756
1738,1240.6419968605042
1739,1241.4170007705688
1740,1242.1900043487549
1741,1242.954008102417
1742,1243.75701212883
1743,1244.5580158233643
1744,1245.3580198287964
1745,1246.1540236473083
1746,1246.9480273723602
1747,1247.7500312328339
1748,1248.5560352802277
1749,1249.3560390472412
1750,1250.1590430736542
1751,1250.9660468101501
1752,1251.765050649643
1753,1252.5730545520782
1754,1253.3980586528778
1755,1254.2190625667572
1756,1255.0400664806366
1757,1255.8540704250336
1758,1256.6620743274689
1759,1257.478078365326
1760,1258.303082227707
1761,1259.1200861930847
1762,1259.9470903873444
1763,1260.7540941238403
1764,1261.5640981197357
1765,1262.3861021995544
1766,1263.2061059474945
1767,1264.0251100063324
1768,1264.829113960266
1769,1265.6441178321838
1770,1266.4671218395233
1771,1267.2831256389618
1772,1268.0921297073364
1773,1268.9031336307526
1774,1269.7201375961304
1775,1270.5291414260864
1776,1271.3421454429626
1777,1272.1561493873596
1778,1272.9851531982422
1779,1273.791157245636
1780,1274.600161075592
1781,1275.4241650104523
1782,1276.251169204712
1783,1277.0771729946136
1784,1277.8891770839691
1785,1278.7181811332703
1786,1279.5451850891113
1787,1280.3671889305115
1788,1281.1891930103302
1789,1282.0021967887878
1790,1282.8082008361816
1791,1283.6192047595978
1792,1284.4312086105347
1793,1285.24121260643
1794,1286.0512163639069
1795,1286.8612203598022
1796,1287.6702241897583
1797,1288.4802281856537
1798,1289.2922320365906
1799,1290.1032359600067
1800,1290.9172399044037
1801,1291.7202439308167
1802,1292.523247718811
1803,1293.3282516002655
1804,1294.1322555541992
1805,1294.9242594242096
1806,1295.7222633361816
1807,1296.5142669677734
1808,1297.308270931244
1809,1298.0952746868134
1810,1298.8782784938812
1811,1299.677282333374
1812,1300.4682862758636
1813,1301.2632899284363
1814,1302.0792939662933
1815,1302.8912978172302
1816,1303.7003018856049
1817,1304.5103056430817
1818,1305.3113095760345
1819,1306.1193134784698
1820,1306.925317287445
1821,1307.7343213558197
1822,1308.5443251132965
1823,1309.3613290786743
1824,1310.1683330535889
1825,1310.9703369140625
1826,1311.7873408794403
1827,1312.5983448028564
1828,1313.4083487987518
1829,1314.2163527011871
1830,1315.0163564682007
1831,1315.8163602352142
1832,1316.620364189148
1833,1317.4253680706024
1834,1318.2253720760345
1835,1319.025375843048
1836,1319.82137966156
1837,1320.6203835010529
1838,1321.4163873195648
1839,1322.2173912525177
1840,1323.0083951950073
1841,1323.8013989925385
1842,1324.5874028205872
1843,1325.3764066696167
1844,1326.1694104671478
1845,1326.957414150238
1846,1327.740417957306
1847,1328.5294218063354
1848,1329.316425561905
1849,1330.1014294624329
1850,1330.8854331970215
1851,1331.6784369945526
1852,1332.4734408855438
1853,1333.2704446315765
1854,1334.062448501587
1855,1334.8494522571564
1856,1335.645456314087
1857,1336.4464600086212
1858,1337.2414638996124
1859,1338.0344676971436
1860,1338.828471660614
1861,1339.622475385666
1862,1340.4104793071747
1863,1341.1904830932617
1864,1341.9744868278503
1865,1342.7654905319214
1866,1343.5614943504333
1867,1344.3494982719421
1868,1345.1415021419525
1869,1345.9345059394836
1870,1346.7125096321106
1871,1347.4765133857727
1872,1348.2345170974731
1873,1348.9905207157135
1874,1349.759524345398
1875,1350.5275280475616
1876,1351.3045318126678
1877,1352.0775356292725
1878,1352.8585393428802
1879,1353.6425430774689
1880,1354.4185469150543
1881,1355.1935505867004
1882,1355.9685544967651
1883,1356.7415580749512
1884,1357.5145618915558
1885,1358.2945656776428
1886,1359.0845694541931
1887,1359.854573249817
1888,1360.6325769424438
1889,1361.40958070755
1890,1362.1785843372345
1891,1362.9475882053375
1892,1363.7125918865204
1893,1364.4715955257416
1894,1365.2355992794037
1895,1366.0086028575897
1896,1366.789606809616
1897,1367.5706105232239
1898,1368.3676142692566
1899,1369.1736183166504
1900,1369.9796221256256
1901,1370.7756259441376
1902,1371.569629907608
1903,1372.3546335697174
1904,1373.1386375427246
1905,1373.923641204834
1906,1374.7076449394226
1907,1375.4896488189697
1908,1376.2696526050568
1909,1377.0496563911438
1910,1377.8416602611542
1911,1378.6236639022827
1912,1379.395667552948
1913,1380.1726713180542
1914,1380.9516751766205
1915,1381.7266788482666
1916,1382.5096826553345
1917,1383.2956864833832
1918,1384.0726902484894
1919,1384.856693983078
1920,1385.6496980190277
1921,1386.4477016925812
1922,1387.248705625534
1923,1388.044709444046
1924,1388.8257131576538
1925,1389.6117169857025
1926,1390.4027209281921
1927,1391.1927247047424
1928,1391.9887285232544
1929,1392.779732465744
1930,1393.568736076355
1931,1394.350739955902
1932,1395.1587438583374
1933,1395.9697477817535
1934,1396.7717516422272
1935,1397.5637555122375
1936,1398.3437592983246
1937,1399.1267631053925
1938,1399.9077668190002
1939,1400.6817705631256
1940,1401.4567742347717
1941,1402.237778186798
1942,1403.0167818069458
1943,1403.7837855815887
1944,1404.5457892417908
1945,1405.2947928905487
1946,1406.0517964363098
1947,1406.817800283432
1948,1407.5808038711548
1949,1408.355807542801
1950,1409.1278114318848
1951,1409.9078152179718
1952,1410.684818983078
1953,1411.4598226547241
1954,1412.2398264408112
1955,1413.0018301010132
1956,1413.7638337612152
1957,1414.5148375034332
1958,1415.2878410816193
1959,1416.0478448867798
1960,1416.8038485050201
1961,1417.5658521652222
1962,1418.332855939865
1963,1419.0938596725464
1964,1419.8558633327484
1965,1420.6188669204712
1966,1421.3848705291748
1967,1422.148874282837
1968,1422.9058780670166
1969,1423.6558816432953
1970,1424.4128851890564
1971,1425.1738889217377
1972,1425.9328925609589
1973,1426.6958963871002
1974,1427.4579000473022
1975,1428.2249035835266
1976,1428.998907327652
1977,1429.767911195755
1978,1430.5359148979187
1979,1431.3039186000824
1980,1432.0739223957062
1981,1432.8539261817932
1982,1433.618929862976
1983,1434.3799333572388
1984,1435.1419370174408
1985,1435.8959407806396
1986,1436.6549444198608
1987,1437.4179482460022
1988,1438.1869518756866
1989,1438.9639556407928
1990,1439.7339594364166
1991,1440.4929630756378
1992,1441.2459666728973
1993,1441.993970155716
1994,1442.7319738864899
1995,1443.4679772853851
1996,1444.2069809436798
1997,1444.9429845809937
1998,1445.6849880218506
1999,1446.4159915447235
2000,1447.1439950466156
2001,1447.872998714447
2002,1448.6160023212433
2003,1449.3600058555603
2004,1450.1070094108582
2005,1450.8710131645203
2006,1451.6370167732239
2007,1452.4130206108093
2008,1453.1920244693756
2009,1453.9730281829834
2010,1454.7370319366455
2011,1455.4990355968475
2012,1456.2510392665863
2013,1457.0090427398682
2014,1457.7700464725494
2015,1458.5130500793457
2016,1459.2550537586212
2017,1459.9990572929382
2018,1460.746060848236
2019,1461.500064611435
2020,1462.2520682811737
2021,1463.0160717964172
2022,1463.7850756645203
2023,1464.5570793151855
2024,1465.3430831432343
2025,1466.1320869922638
2026,1466.9290907382965
2027,1467.7270946502686
2028,1468.5260984897614
2029,1469.3161022663116
2030,1470.0931060314178
2031,1470.875109910965
2032,1471.6611137390137
2033,1472.4551174640656
2034,1473.2561213970184
2035,1474.0531251430511
2036,1474.8451290130615
2037,1475.6301329135895
2038,1476.4071366786957
2039,1477.1841404438019
2040,1477.959144115448
2041,1478.7271478176117
2042,1479.4961514472961
2043,1480.2641551494598
2044,1481.030158996582
2045,1481.8021626472473
2046,1482.5801663398743
2047,1483.3561701774597
2048,1484.1211738586426
2049,1484.884177684784
2050,1485.6561813354492
2051,1486.4291851520538
2052,1487.2091886997223
2053,1487.9931926727295
2054,1488.775196313858
2055,1489.555200099945
2056,1490.3472039699554
2057,1491.1352078914642
2058,1491.916211605072
2059,1492.6932153701782
2060,1493.4682190418243
2061,1494.2502229213715
2062,1495.0322265625
2063,1495.8182303905487
2064,1496.6142342090607
2065,1497.4052381515503
2066,1498.204241991043
2067,1498.9932458400726
2068,1499.7702496051788
2069,1500.5502533912659
2070,1501.3312571048737
2071,1502.1092607975006
2072,1502.8862645626068
2073,1503.6552681922913
2074,1504.4332721233368
2075,1505.197275876999
2076,1505.9662795066833
2077,1506.7332832813263
2078,1507.496286869049
2079,1508.261290550232
2080,1509.0192942619324
2081,1509.7752978801727
2082,1510.5223014354706
2083,1511.2663052082062
2084,1512.0053086280823
2085,1512.7423121929169
2086,1513.4813158512115
2087,1514.2363195419312
2088,1514.9933230876923
2089,1515.7413268089294
2090,1516.489330291748
2091,1517.2453339099884
2092,1518.0083377361298
2093,1518.7743413448334
2094,1519.542345046997
2095,1520.3053488731384
2096,1521.0643525123596
2097,1521.8413562774658
2098,1522.6143598556519
2099,1523.3843636512756
2100,1524.15336728096
2101,1524.9193711280823
2102,1525.6833748817444
2103,1526.4503784179688
2104,1527.2153820991516
2105,1527.9773857593536
2106,1528.7483894824982
2107,1529.5133934020996
2108,1530.280396938324
2109,1531.049400806427
2110,1531.8314044475555
2111,1532.6174082756042
2112,1533.405412197113
2113,1534.188416004181
2114,1534.974419593811
2115,1535.7664234638214
2116,1536.5724275112152
2117,1537.3804314136505
2118,1538.1924352645874
2119,1539.0184392929077
2120,1539.8454432487488
2121,1540.6774473190308
2122,1541.483451128006
2123,1542.2934551239014
2124,1543.1074590682983
2125,1543.9334630966187
2126,1544.7694671154022
2127,1545.58647108078
2128,1546.4044749736786
2129,1547.2324788570404
2130,1548.0504829883575
2131,1548.868486881256
2132,1549.6724908351898
2133,1550.478494644165
2134,1551.2804985046387
2135,1552.086502313614
2136,1552.9085063934326
2137,1553.7375104427338
2138,1554.5605144500732
2139,1555.3655183315277
2140,1556.1745221614838
2141,1556.9845261573792
2142,1557.794529914856
2143,1558.6035339832306
2144,1559.4095377922058
2145,1560.217541694641
2146,1561.0425457954407
2147,1561.8645496368408
2148,1562.6855535507202
2149,1563.502557516098
2150,1564.3205616474152
2151,1565.1405653953552
2152,1565.9585695266724
2153,1566.7495732307434
2154,1567.5355770587921
2155,1568.3155808448792
2156,1569.1095848083496
2157,1569.925588607788
2158,1570.7295925617218
2159,1571.5425963401794
2160,1572.3486003875732
2161,1573.147604227066
2162,1573.945608139038
2163,1574.7346119880676
2164,1575.5296156406403
2165,1576.331619501114
2166,1577.1356234550476
2167,1577.9506273269653
2168,1578.7716314792633
2169,1579.6146354675293
2170,1580.445639371872
2171,1581.256643295288
2172,1582.0546472072601
2173,1582.8366510868073
2174,1583.6216547489166
2175,1584.4086587429047
2176,1585.2076625823975
2177,1586.0016663074493
2178,1586.7956702709198
2179,1587.5986740589142
2180,1588.4126780033112
2181,1589.2146818637848
2182,1590.0136857032776
2183,1590.823689699173
2184,1591.6266934871674
2185,1592.433697462082
2186,1593.2287013530731
2187,1594.0217051506042
2188,1594.8217089176178
2189,1595.6177127361298
2190,1596.4047167301178
2191,1597.187720298767
2192,1597.9577240943909
2193,1598.7277278900146
2194,1599.5067315101624
2195,1600.2867352962494
2196,1601.0747392177582
2197,1601.8457429409027
2198,1602.601746559143
2199,1603.3427500724792
2200,1604.0747537612915
2201,1604.7977571487427
2202,1605.5137605667114
2203,1606.237764120102
2204,1606.9617676734924
2205,1607.698771238327
2206,1608.442774772644
2207,1609.191778421402
2208,1609.94278216362
2209,1610.6937856674194
2210,1611.435789346695
2211,1612.181792974472
2212,1612.92879652977
2213,1613.6688001155853
2214,1614.4128036499023
2215,1615.1588072776794
2216,1615.8978109359741
2217,1616.6378145217896
2218,1617.3788180351257
2219,1618.1178216934204
2220,1618.8518252372742
2221,1619.585828781128
2222,1620.31183218956
2223,1621.034835577011
2224,1621.7538392543793
2225,1622.4718425273895
2226,1623.1888461112976
2227,1623.910849571228
2228,1624.630853176117
2229,1625.3538565635681
2230,1626.0788600444794
2231,1626.7938635349274
2232,1627.5108668804169
2233,1628.2208704948425
2234,1628.937873840332
2235,1629.65287733078
2236,1630.362880706787
2237,1631.0718841552734
2238,1631.777887582779
2239,1632.4918911457062
2240,1633.204894542694
2241,1633.917897939682
2242,1634.6289014816284
2243,1635.3419048786163
2244,1636.0569083690643
2245,1636.7739117145538
2246,1637.4779150485992
2247,1638.1859185695648
2248,1638.9009220600128
2249,1639.6169254779816
2250,1640.3269288539886
2251,1641.0339324474335
2252,1641.7409358024597
2253,1642.4449391365051
2254,1643.1479425430298
2255,1643.8559460639954
2256,1644.5549492835999
2257,1645.2589528560638
2258,1645.9649562835693
2259,1646.665959596634
2260,1647.3669629096985
2261,1648.0679664611816
2262,1648.7739696502686
2263,1649.4779732227325
2264,1650.181976556778
2265,1650.8839800357819
2266,1651.593983411789
2267,1652.2959868907928
2268,1652.9989902973175
2269,1653.7079935073853
2270,1654.4219970703125
2271,1655.133000612259
2272,1655.8470039367676
2273,1656.558007478714
2274,1657.271010875702
2275,1657.9820141792297
2276,1658.6950178146362
2277,1659.4070210456848
2278,1660.1160244941711
2279,1660.8270280361176
2280,1661.538031578064
2281,1662.2490348815918
2282,1662.9690384864807
2283,1663.694041967392
2284,1664.4140453338623
2285,1665.140048980713
2286,1665.8640522956848
2287,1666.5820558071136
2288,1667.2950592041016
2289,1668.0090627670288
2290,1668.7240662574768
2291,1669.4280695915222
2292,1670.1320729255676
2293,1670.8320763111115
2294,1671.5370798110962
2295,1672.23708319664
2296,1672.9380865097046
2297,1673.6390900611877
2298,1674.3340933322906
2299,1675.0330967903137
2300,1675.74010014534
2301,1676.4471035003662
2302,1677.1551070213318
2303,1677.8711104393005
2304,1678.5871138572693
2305,1679.2991173267365
2306,1680.0141208171844
2307,1680.7281241416931
2308,1681.4411277770996
2309,1682.1531310081482
2310,1682.8631346225739
2311,1683.56813788414
2312,1684.2751414775848
2313,1684.985144853592
2314,1685.6991481781006
2315,1686.4171516895294
2316,1687.1241550445557
2317,1687.8371586799622
2318,1688.553162097931
2319,1689.2661654949188
2320,1689.9791688919067
2321,1690.691172361374
2322,1691.401175737381
2323,1692.12117934227
2324,1692.836182832718
2325,1693.5561861991882
2326,1694.2831897735596
2327,1695.0041933059692
2328,1695.7281966209412
2329,1696.4612002372742
2330,1697.1902039051056
2331,1697.9212074279785
2332,1698.651210784912
2333,1699.3762142658234
2334,1700.0992178916931
2335,1700.8262214660645
2336,1701.5602250099182
2337,1702.3002285957336
2338,1703.0312321186066
2339,1703.7752356529236
2340,1704.517239332199
2341,1705.2602427005768
2342,1705.9952464103699
2343,1706.7382500171661
2344,1707.4762535095215
2345,1708.2032570838928
2346,1708.9172604084015
2347,1709.6262638568878
2348,1710.3352673053741
2349,1711.048270702362
2350,1711.7582743167877
2351,1712.4692776203156
2352,1713.1872811317444
2353,1713.8942844867706
2354,1714.603287935257
2355,1715.3232915401459
2356,1716.0452950000763
2357,1716.766298532486
2358,1717.4903018474579
2359,1718.2193055152893
2360,1718.9423089027405
2361,1719.6703124046326
2362,1720.4083161354065
2363,1721.1463196277618
2364,1721.8833231925964
2365,1722.6133267879486
2366,1723.3403301239014
2367,1724.0623335838318
2368,1724.7883372306824
2369,1725.5103406906128
2370,1726.2303440570831
2371,1726.9523477554321
2372,1727.6783511638641
2373,1728.3983545303345
2374,1729.1203582286835
2375,1729.8473615646362
2376,1730.5823652744293
2377,1731.316368818283
2378,1732.0433721542358
2379,1732.7703757286072
2380,1733.4953792095184
2381,1734.2223827838898
2382,1734.9503862857819
2383,1735.678389787674
2384,1736.4083933830261
2385,1737.1303968429565
2386,1737.8624002933502
2387,1738.5914039611816
2388,1739.3244075775146
2389,1740.0674109458923
2390,1740.8054146766663
2391,1741.5364181995392
2392,1742.2734217643738
2393,1743.0074253082275
2394,1743.7464287281036
2395,1744.4794323444366
2396,1745.211436033249
2397,1745.9454395771027
2398,1746.6794431209564
2399,1747.4334466457367
2400,1748.1804502010345
2401,1748.92045378685
2402,1749.6574573516846
2403,1750.39946103096
2404,1751.1364645957947
2405,1751.8804681301117
2406,1752.6174716949463
2407,1753.3544752597809
2408,1754.082478761673
2409,1754.8164823055267
2410,1755.554485797882
2411,1756.2964894771576
2412,1757.0324931144714
2413,1757.764496564865
2414,1758.4985001087189
2415,1759.2385036945343
2416,1759.9795072078705
2417,1760.7135107517242
2418,1761.4455144405365
2419,1762.1755180358887
2420,1762.9025213718414
2421,1763.623524904251
2422,1764.3505284786224
2423,1765.071532011032
2424,1765.7945353984833
2425,1766.5245389938354
2426,1767.254542350769
2427,1767.9805459976196
2428,1768.7135496139526
2429,1769.4485530853271
2430,1770.1855566501617
2431,1770.9245603084564
2432,1771.6625638008118
2433,1772.4095673561096
2434,1773.1625709533691
2435,1773.9105746746063
2436,1774.6515781879425
2437,1775.3905818462372
2438,1776.137585401535
2439,1776.8845889568329
2440,1777.614592552185
2441,1778.340595960617
2442,1779.0595996379852
2443,1779.786602973938
2444,1780.5186066627502
2445,1781.2536101341248
2446,1781.9896137714386
2447,1782.724617242813
2448,1783.4636209011078
2449,1784.2076244354248
2450,1784.9576280117035
2451,1785.7026317119598
2452,1786.4536352157593
2453,1787.2086389064789
2454,1787.9636425971985
2455,1788.7076461315155
2456,1789.4486496448517
2457,1790.180653333664
2458,1790.9176568984985
2459,1791.6906604766846
2460,1792.4636642932892
2461,1793.2196679115295
2462,1793.97567152977
2463,1794.7326753139496
2464,1795.4816789627075
2465,1796.2266824245453
2466,1796.9716861248016
2467,1797.729689836502
2468,1798.4836933612823
2469,1799.2326970100403
2470,1799.9867007732391
2471,1800.7417042255402
2472,1801.5057079792023
2473,1802.2717118263245
2474,1803.0367155075073
2475,1803.8037190437317
2476,1804.5547227859497
2477,1805.3067264556885
2478,1806.0657300949097
2479,1806.8157336711884
2480,1807.5627372264862
2481,1808.3097410202026
2482,1809.047744512558
2483,1809.7907481193542
2484,1810.5457518100739
2485,1811.3017554283142
2486,1812.0587589740753
2487,1812.8067626953125
2488,1813.557766199112
2489,1814.3167698383331
2490,1815.065773487091
2491,1815.8117771148682
2492,1816.5627808570862
2493,1817.3187844753265
2494,1818.0737881660461
2495,1818.820791721344
2496,1819.5587952136993
2497,1820.3037989139557
2498,1821.0398025512695
2499,1821.7758059501648
2500,1822.5108096599579
2501,1823.2408130168915
2502,1823.9758167266846
2503,1824.7098202705383
2504,1825.454823732376
2505,1826.1988275051117
2506,1826.9298310279846
2507,1827.6618344783783
2508,1828.382838010788
2509,1829.090841293335
2510,1829.8088448047638
2511,1830.5258483886719
2512,1831.2448518276215
2513,1831.9858553409576
2514,1832.7218589782715
2515,1833.4628624916077
2516,1834.207866191864
2517,1834.9508697986603
2518,1835.693873167038
2519,1836.4378769397736
2520,1837.193880558014
2521,1837.9478840827942
2522,1838.706887960434
2523,1839.4628915786743
2524,1840.2118952274323
2525,1840.9598987102509
2526,1841.7069022655487
2527,1842.4459059238434
2528,1843.2029094696045
2529,1843.9569132328033
2530,1844.7009167671204
2531,1845.4529204368591
2532,1846.2059240341187
2533,1846.9539277553558
2534,1847.7099313735962
2535,1848.4649350643158
2536,1849.2149386405945
2537,1849.9639422893524
2538,1850.711945772171
2539,1851.4589495658875
2540,1852.2089531421661
2541,1852.9569566249847
2542,1853.6989603042603
2543,1854.437963962555
2544,1855.1719675064087
2545,1855.9159710407257
2546,1856.6659746170044
2547,1857.4099781513214
2548,1858.1569819450378
2549,1858.9169855117798
2550,1859.677989244461
2551,1860.444993019104
2552,1861.2039966583252
2553,1861.9700002670288
2554,1862.7430040836334
2555,1863.5120077133179
2556,1864.2880115509033
2557,1865.0580151081085
2558,1865.818018913269
2559,1866.580022573471
2560,1867.3460261821747
2561,1868.1050300598145
2562,1868.8640336990356
2563,1869.6170372962952
2564,1870.3720409870148
2565,1871.1230444908142
2566,1871.8790481090546
2567,1872.6440517902374
2568,1873.4110555648804
2569,1874.1760592460632
2570,1874.9350628852844
2571,1875.6970665454865
2572,1876.4660704135895
2573,1877.235074043274
2574,1878.0070776939392
2575,1878.7840814590454
2576,1879.5530853271484
2577,1880.324089050293
2578,1881.0930926799774
2579,1881.8580963611603
2580,1882.6231000423431
2581,1883.388103723526
2582,1884.157107591629
2583,1884.9381113052368
2584,1885.7141151428223
2585,1886.4841187000275
2586,1887.2481224536896
2587,1888.0131261348724
2588,1888.7791299819946
2589,1889.55113363266
2590,1890.326137304306
2591,1891.0921411514282
2592,1891.8621447086334
2593,1892.6421484947205
2594,1893.4221522808075
2595,1894.2001559734344
2596,1894.9681599140167
2597,1895.7411634922028
2598,1896.5151672363281
2599,1897.2831709384918
2600,1898.0501747131348
2601,1898.8151783943176
2602,1899.5881822109222
2603,1900.3761858940125
2604,1901.167189836502
2605,1901.9691936969757
2606,1902.775197505951
2607,1903.5812013149261
2608,1904.3682053089142
2609,1905.1592090129852
2610,1905.9382128715515
2611,1906.7132165431976
2612,1907.4842202663422
2613,1908.2472240924835
2614,1909.0172276496887
2615,1909.7842314243317
2616,1910.558235168457
2617,1911.3312389850616
2618,1912.098242521286
2619,1912.8682463169098
2620,1913.640249967575
2621,1914.407253742218
2622,1915.1712574958801
2623,1915.934261083603
2624,1916.7012648582458
2625,1917.4592685699463
2626,1918.214272260666
2627,1918.9742758274078
2628,1919.7322795391083
2629,1920.498283147812
2630,1921.262286901474
2631,1922.0382907390594
2632,1922.8152945041656
2633,1923.5812981128693
2634,1924.3593018054962
2635,1925.12730550766
2636,1925.889309167862
2637,1926.6623129844666
2638,1927.4273166656494
2639,1928.184320449829
2640,1928.9433240890503
2641,1929.69832777977
2642,1930.4483313560486
2643,1931.2003350257874
2644,1931.948338508606
2645,1932.7023422718048
2646,1933.4663457870483
2647,1934.2263495922089
2648,1934.9793531894684
2649,1935.7283568382263
2650,1936.4753603935242
2651,1937.2283639907837
2652,1937.9813678264618
2653,1938.7323713302612
2654,1939.5063750743866
2655,1940.2733788490295
2656,1941.037382364273
2657,1941.8133862018585
2658,1942.5883898735046
2659,1943.349393606186
2660,1944.1013972759247
2661,1944.8434009552002
2662,1945.5934045314789
2663,1946.3384079933167
2664,1947.070411682129
2665,1947.8044152259827
2666,1948.5434186458588
2667,1949.2714223861694
2668,1949.9964258670807
2669,1950.7284293174744
2670,1951.4644329547882
2671,1952.2014365196228
2672,1952.9384400844574
2673,1953.6804435253143
2674,1954.4184472560883
2675,1955.1584508419037
2676,1955.8914542198181
2677,1956.629457950592
2678,1957.355461359024
2679,1958.0854649543762
2680,1958.814468383789
2681,1959.545471906662
2682,1960.2664754390717
2683,1960.9764788150787
2684,1961.6864821910858
2685,1962.3964858055115
2686,1963.1164891719818
2687,1963.8394927978516
2688,1964.5644962787628
2689,1965.292499780655
2690,1966.018503189087
2691,1966.7455067634583
2692,1967.4785103797913
2693,1968.2095139026642
2694,1968.9345173835754
2695,1969.6565208435059
2696,1970.3805243968964
2697,1971.0985279083252
2698,1971.8165311813354
2699,1972.540534734726
2700,1973.268538236618
2701,1973.9945418834686
2702,1974.7225453853607
2703,1975.4485487937927
2704,1976.1805522441864
2705,1976.9125559329987
2706,1977.6405594348907
2707,1978.3825631141663
2708,1979.1335666179657
2709,1979.8845703601837
2710,1980.636573791504
2711,1981.3935775756836
2712,1982.1555812358856
2713,1982.9155848026276
2714,1983.678588628769
2715,1984.4395923614502
2716,1985.2015960216522
2717,1985.9565997123718
2718,1986.7096033096313
2719,1987.4606068134308
2720,1988.2056105136871
2721,1988.954614162445
2722,1989.698617696762
2723,1990.4486212730408
2724,1991.1926248073578
2725,1991.935628414154
2726,1992.6746320724487
2727,1993.40163564682
2728,1994.1316392421722
2729,1994.8576426506042
2730,1995.5816462039948
2731,1996.3096497058868
2732,1997.0416531562805
2733,1997.7776567935944
2734,1998.5196602344513
2735,1999.2616639137268
2736,2000.0036675930023
2737,2000.74867105484
2738,2001.4936747550964
2739,2002.2316782474518
2740,2002.9736819267273
2741,2003.7146854400635
2742,2004.4596891403198
2743,2005.2016925811768
2744,2005.946696281433
2745,2006.6916997432709
2746,2007.4367034435272
2747,2008.1897070407867
2748,2008.9357106685638
2749,2009.6887142658234
2750,2010.4357178211212
2751,2011.1787214279175
2752,2011.915724992752
2753,2012.6507287025452
2754,2013.384732246399
2755,2014.112735748291
2756,2014.840739250183
2757,2015.6027429103851
2758,2016.3637466430664
2759,2017.1257503032684
2760,2017.896754026413
2761,2018.6857578754425
2762,2019.4607615470886
2763,2020.2257652282715
2764,2020.985769033432
2765,2021.7507727146149
2766,2022.5147762298584
2767,2023.2847800254822
2768,2024.0567836761475
2769,2024.8257875442505
2770,2025.5977911949158
2771,2026.374794960022
2772,2027.1437985897064
2773,2027.9158024787903
2774,2028.6958062648773
2775,2029.4808099269867
2776,2030.2528138160706
2777,2031.0258173942566
2778,2031.7898211479187
2779,2032.54882478714
2780,2033.3168284893036
2781,2034.0788321495056
2782,2034.8468358516693
2783,2035.6048395633698
2784,2036.3628432750702
2785,2037.1218469142914
2786,2037.87185049057
2787,2038.618854045868
2788,2039.366857767105
2789,2040.1098613739014
2790,2040.8558650016785
2791,2041.597868680954
2792,2042.341872215271
2793,2043.0828757286072
2794,2043.831879377365
2795,2044.5688829421997
2796,2045.3048865795135
2797,2046.039890050888
2798,2046.7788937091827
2799,2047.5098972320557
2800,2048.2439007759094
2801,2048.977904319763
2802,2049.714907884598
2803,2050.452911376953
2804,2051.191915035248
2805,2051.929918527603
2806,2052.6679220199585
2807,2053.406925678253
2808,2054.1469292640686
2809,2054.881932735443
2810,2055.612936258316
2811,2056.3389399051666
2812,2057.0669434070587
2813,2057.7989468574524
2814,2058.521950483322
2815,2059.252954006195
2816,2059.9849574565887
2817,2060.7089610099792
2818,2061.440964460373
2819,2062.165967941284
2820,2062.8939714431763
2821,2063.6269750595093
2822,2064.3569786548615
2823,2065.086982011795
2824,2065.816985607147
2825,2066.548989057541
2826,2067.2779927253723
2827,2068.0109963417053
2828,2068.7359998226166
2829,2069.461003303528
2830,2070.18700671196
2831,2070.9100103378296
2832,2071.6420137882233
2833,2072.371017217636
2834,2073.10702085495
2835,2073.851024389267
2836,2074.6010282039642
2837,2075.3600318431854
2838,2076.1070353984833
2839,2076.859039068222
2840,2077.6000425815582
2841,2078.3420462608337
2842,2079.080049753189
2843,2079.8190534114838
2844,2080.5500569343567
2845,2081.285060405731
2846,2082.0310640335083
2847,2082.7820675373077
2848,2083.522071123123
2849,2084.2650747299194
2850,2085.0080783367157
2851,2085.7520821094513
2852,2086.483085632324
2853,2087.215089082718
2854,2087.9470925331116
2855,2088.6820962429047
2856,2089.4130997657776
2857,2090.1451032161713
2858,2090.879106760025
2859,2091.6191103458405
2860,2092.3631138801575
2861,2093.107117652893
2862,2093.852121114731
2863,2094.5861246585846
2864,2095.321128129959
2865,2096.060131788254
2866,2096.8131353855133
2867,2097.5591390132904
2868,2098.3061425685883
2869,2099.047146320343
2870,2099.788149833679
2871,2100.5151534080505
2872,2101.240156888962
2873,2101.963160276413
2874,2102.6821637153625
2875,2103.3971672058105
2876,2104.1151707172394
2877,2104.8301742076874
2878,2105.5471777915955
2879,2106.28218126297
2880,2107.013184785843
2881,2107.743188381195
2882,2108.472191810608
2883,2109.20219540596
2884,2109.9371988773346
2885,2110.662202358246
2886,2111.358205795288
2887,2112.0592091083527
2888,2112.7782125473022
2889,2113.4942162036896
2890,2114.21621966362
2891,2114.9462230205536
2892,2115.668226480484
2893,2116.3892300128937
2894,2117.10023355484
2895,2117.798236846924
2896,2118.497240304947
2897,2119.2002437114716
2898,2119.9112470149994
2899,2120.6362504959106
2900,2121.3742542266846
2901,2122.1212577819824
2902,2122.8672614097595
2903,2123.6162650585175
2904,2124.3882687091827
2905,2125.1502723693848
2906,2125.9042761325836
2907,2126.675279855728
2908,2127.4392836093903
2909,2128.200287103653
2910,2128.959290742874
2911,2129.7222945690155
2912,2130.4922983646393
2913,2131.276302099228
2914,2132.0733058452606
2915,2132.86030960083
2916,2133.640313386917
2917,2134.425317287445
2918,2135.216320991516
2919,2136.004324913025
2920,2136.8083288669586
2921,2137.6023325920105
2922,2138.388336420059
2923,2139.1623401641846
2924,2139.935343980789
2925,2140.693347454071
2926,2141.444351196289
2927,2142.1863548755646
2928,2142.9283583164215
2929,2143.673362016678
2930,2144.419365644455
2931,2145.1713693141937
2932,2145.9193727970123
2933,2146.6623764038086
2934,2147.42188000679
2935,2148.1813838481903
2936,2148.929387331009
2937,2149.6893911361694
2938,2150.4443945884705
2939,2151.1973984241486
2940,2151.9564020633698
2941,2152.7394058704376
2942,2153.529409646988
2943,2154.322413444519
2944,2155.1284172534943
2945,2155.9544212818146
2946,2156.7814252376556
2947,2157.6144292354584
2948,2158.4254331588745
2949,2159.219437122345
2950,2160.0054409503937
2951,2160.795444726944
2952,2161.588448524475
2953,2162.358452320099
2954,2163.122456073761
2955,2163.879459619522
2956,2164.6404633522034
2957,2165.395467042923
2958,2166.160470724106
2959,2166.916474342346
2960,2167.6744780540466
2961,2168.4244816303253
2962,2169.1804852485657
2963,2169.9474890232086
2964,2170.721492767334
2965,2171.49649643898
2966,2172.2545001506805
2967,2173.0065038204193
2968,2173.7625074386597
2969,2174.5225110054016
2970,2175.282514810562
2971,2176.0335183143616
2972,2176.775521993637
2973,2177.5165255069733
2974,2178.2615292072296
2975,2179.0135328769684
2976,2179.7675364017487
2977,2180.5195400714874
2978,2181.271543741226
2979,2182.023547410965
2980,2182.783550977707
2981,2183.5465548038483
2982,2184.317558526993
2983,2185.0855622291565
2984,2185.846565723419
2985,2186.6075694561005
2986,2187.3725731372833
2987,2188.1385769844055
2988,2188.8965804576874
2989,2189.6635842323303
2990,2190.4245879650116
2991,2191.1865916252136
2992,2191.9335951805115
2993,2192.6795988082886
2994,2193.422602415085
2995,2194.1646060943604
2996,2194.9056096076965
2997,2195.6496131420135
2998,2196.3906168937683
2999,2197.127620458603
3000,2197.863623857498
3001,2198.5986275672913
3002,2199.3336310386658
3003,2200.0676345825195
3004,2200.7966380119324
3005,2201.519641637802
3006,2202.2436451911926
3007,2202.966648578644
3008,2203.6856520175934
3009,2204.411655664444
3010,2205.1386590003967
3011,2205.8596625328064
3012,2206.581665992737
3013,2207.309669494629
3014,2208.044673204422
3015,2208.7746765613556
3016,2209.5126802921295
3017,2210.245683670044
3018,2210.9746873378754
3019,2211.698690891266
3020,2212.429694414139
3021,2213.1586978435516
3022,2213.8847012519836
3023,2214.614704847336
3024,2215.344708442688
3025,2216.0767118930817
3026,2216.818715572357
3027,2217.5537190437317
3028,2218.2907226085663
3029,2219.0237262248993
3030,2219.7627296447754
3031,2220.491733312607
3032,2221.2287368774414
3033,2221.9647405147552
3034,2222.7027440071106
3035,2223.437747478485
3036,2224.1797511577606
3037,2224.9187545776367
3038,2225.6627583503723
3039,2226.4007618427277
3040,2227.1367654800415
3041,2227.8787689208984
3042,2228.6217725276947
3043,2229.356776237488
3044,2230.089779615402
3045,2230.8217833042145
3046,2231.5557868480682
3047,2232.2887902259827
3048,2233.0227937698364
3049,2233.7537972927094
3050,2234.4828009605408
3051,2235.221804380417
3052,2235.95680809021
3053,2236.6918115615845
3054,2237.4228150844574
3055,2238.151818752289
3056,2238.8828222751617
3057,2239.6168258190155
3058,2240.3438291549683
3059,2241.0688326358795
3060,2241.8008363246918
3061,2242.533839941025
3062,2243.277843475342
3063,2244.020847082138
3064,2244.7608506679535
3065,2245.5018541812897
3066,2246.242857694626
3067,2246.9898612499237
3068,2247.7408649921417
3069,2248.4848685264587
3070,2249.230872154236
3071,2249.973875761032
3072,2250.725879430771
3073,2251.4728829860687
3074,2252.2258865833282
3075,2252.974890232086
3076,2253.726893901825
3077,2254.470897436142
3078,2255.2159011363983
3079,2255.965904712677
3080,2256.7109084129333
3081,2257.4529118537903
3082,2258.1879155635834
3083,2258.920918941498
3084,2259.6519224643707
3085,2260.386926174164
3086,2261.1179296970367
3087,2261.840933084488
3088,2262.554936647415
3089,2263.2669401168823
3090,2263.983943462372
3091,2264.7079470157623
3092,2265.4389505386353
3093,2266.174954175949
3094,2266.9109575748444
3095,2267.646961212158
3096,2268.3879647254944
3097,2269.1309683322906
3098,2269.8749721050262
3099,2270.621975660324
3100,2271.367979288101
3101,2272.11598277092
3102,2272.859986305237
3103,2273.605989933014
3104,2274.358993768692
3105,2275.115997314453
3106,2275.867001056671
3107,2276.6230046749115
3108,2277.37300825119
3109,2278.125011920929
3110,2278.8800156116486
3111,2279.629019021988
3112,2280.372022628784
3113,2281.1200263500214
3114,2281.8680300712585
3115,2282.614033460617
3116,2283.355037212372
3117,2284.1000406742096
3118,2284.843044281006
3119,2285.5840480327606
3120,2286.3230514526367
3121,2287.068055152893
3122,2287.81205868721
3123,2288.5540623664856
3124,2289.297065973282
3125,2290.0290694236755
3126,2290.76607298851
3127,2291.5060765743256
3128,2292.2340800762177
3129,2292.9600834846497
3130,2293.6980872154236
3131,2294.446090698242
3132,2295.198094367981
3133,2295.9500980377197
3134,2296.7041015625
3135,2297.4611053466797
3136,2298.2091088294983
3137,2298.9571125507355
3138,2299.7041161060333
3139,2300.456119775772
3140,2301.20312333107
3141,2301.952126979828
3142,2302.7051305770874
3143,2303.4711344242096
3144,2304.2381381988525
3145,2305.0081417560577
3146,2305.785145521164
3147,2306.5691492557526
3148,2307.350153207779
3149,2308.125156879425
3150,2308.916160583496
3151,2309.7101645469666
3152,2310.4931683540344
3153,2311.285172224045
3154,2312.0851759910583
3155,2312.8851799964905
3156,2313.682183742523
3157,2314.486187696457
3158,2315.294191598892
3159,2316.0991954803467
3160,2316.8981993198395
3161,2317.703203201294
3162,2318.5102071762085
3163,2319.3222110271454
3164,2320.1322150230408
3165,2320.9462189674377
3166,2321.7692227363586
3167,2322.595226764679
3168,2323.4182307720184
3169,2324.2552349567413
3170,2325.0922389030457
3171,2325.913242816925
3172,2326.7372467517853
3173,2327.5602507591248
3174,2328.3852548599243
3175,2329.213258743286
3176,2330.0232627391815
3177,2330.8242666721344
3178,2331.6282703876495
3179,2332.4342744350433
3180,2333.2382781505585
3181,2334.032282114029
3182,2334.8292858600616
3183,2335.628289937973
3184,2336.421293735504
3185,2337.2102975845337
3186,2337.997301340103
3187,2338.7853050231934
3188,2339.579308986664
3189,2340.3613126277924
3190,2341.1433165073395
3191,2341.922320127487
3192,2342.707324028015
3193,2343.4913277626038
3194,2344.271331548691
3195,2345.051335334778
3196,2345.8223390579224
3197,2346.593342781067
3198,2347.357346534729
3199,2348.1313502788544
3200,2348.9053540229797
3201,2349.6883578300476
3202,2350.478361606598
3203,2351.2523653507233
3204,2352.0323691368103
3205,2352.8103728294373
3206,2353.6023766994476
3207,2354.3753805160522
3208,2355.153384208679
3209,2355.9273879528046
3210,2356.7093918323517
3211,2357.484395503998
3212,2358.2603991031647
3213,2359.049402952194
3214,2359.8474068641663
3215,2360.6474108695984
3216,2361.446414709091
3217,2362.248418569565
3218,2363.0504224300385
3219,2363.8514261245728
3220,2364.6414301395416
3221,2365.4344339370728
3222,2366.226437807083
3223,2367.017441511154
3224,2367.7994453907013
3225,2368.5764491558075
3226,2369.348452806473
3227,2370.1084563732147
3228,2370.8834602832794
3229,2371.6444640159607
3230,2372.4054675102234
3231,2373.160471200943
3232,2373.9214749336243
3233,2374.6774785518646
3234,2375.436482191086
3235,2376.1934859752655
3236,2376.959489583969
3237,2377.7174932956696
3238,2378.4794969558716
3239,2379.240500688553
3240,2380.002504348755
3241,2380.761507987976
3242,2381.526511669159
3243,2382.28751540184
3244,2383.0485191345215
3245,2383.8105227947235
3246,2384.5725264549255
3247,2385.3345301151276
3248,2386.108533859253
3249,2386.8775374889374
3250,2387.635541200638
3251,2388.4055449962616
3252,2389.172548532486
3253,2389.9295523166656
3254,2390.6865558624268
3255,2391.437559604645
3256,2392.180563211441
3257,2392.93256688118
3258,2393.676570415497
3259,2394.414573907852
3260,2395.1595776081085
3261,2395.9065811634064
3262,2396.645584821701
3263,2397.387588262558
3264,2398.125591993332
3265,2398.861595392227
3266,2399.602599143982
3267,2400.3346025943756
3268,2401.0636060237885
3269,2401.805609703064
3270,2402.5466132164
3271,2403.2906169891357
3272,2404.0366203784943
3273,2404.785624027252
3274,2405.53462767601
3275,2406.2826313972473
3276,2407.0426349639893
3277,2407.8016386032104
3278,2408.5636422634125
3279,2409.321645975113
3280,2410.0816497802734
3281,2410.845653295517
3282,2411.611657142639
3283,2412.3856608867645
3284,2413.1556646823883
3285,2413.918668270111
3286,2414.688672065735
3287,2415.4536757469177
3288,2416.2146792411804
3289,2416.972682952881
3290,2417.7256865501404
3291,2418.4786903858185
3292,2419.229693889618
3293,2419.9866976737976
3294,2420.7337012290955
3295,2421.481704711914
3296,2422.2297084331512
3297,2422.9777121543884
3298,2423.7297155857086
3299,2424.4857194423676
3300,2425.2377228736877
3301,2425.9967267513275
3302,2426.752730369568
3303,2427.51273393631
3304,2428.2677376270294
3305,2429.022741317749
3306,2429.7767448425293
3307,2430.53674864769
3308,2431.29075217247
3309,2432.044755935669
3310,2432.7997596263885
3311,2433.5517630577087
3312,2434.3027667999268
3313,2435.045770406723
3314,2435.7857739925385
3315,2436.5267775058746
3316,2437.271781206131
3317,2438.018784761429
3318,2438.764788389206
3319,2439.518791913986
3320,2440.2637956142426
3321,2441.0027992725372
3322,2441.7458028793335
3323,2442.4898064136505
3324,2443.2288098335266
3325,2443.9668135643005
3326,2444.7008171081543
3327,2445.448820590973
3328,2446.2268245220184
3329,2446.987828016281
3330,2447.7468316555023
3331,2448.5128355026245
3332,2449.267839193344
3333,2450.0238428115845
3334,2450.7758464813232
3335,2451.527850151062
3336,2452.268853664398
3337,2453.0118572711945
3338,2453.759860754013
3339,2454.508864402771
3340,2455.2538681030273
3341,2456.001871585846
3342,2456.751875400543
3343,2457.5058789253235
3344,2458.2578825950623
3345,2459.007886171341
3346,2459.7478897571564
3347,2460.4788932800293
3348,2461.2118968963623
3349,2461.9509003162384
3350,2462.697904109955
3351,2463.441907644272
3352,2464.1939113140106
3353,2464.952914953232
3354,2465.7209186553955
3355,2466.4839222431183
3356,2467.251925945282
3357,2468.018929719925
3358,2468.7889335155487
3359,2469.54993724823
3360,2470.3039407730103
3361,2471.050944328308
3362,2471.806948184967
3363,2472.547951698303
3364,2473.2989552021027
3365,2474.0449588298798
3366,2474.7949624061584
3367,2475.5459661483765
3368,2476.300969839096
3369,2477.0489733219147
3370,2477.8029770851135
3371,2478.557980775833
3372,2479.309984445572
3373,2480.0709879398346
3374,2480.828991651535
3375,2481.5819952487946
3376,2482.337998867035
3377,2483.089002609253
3378,2483.848006248474
3379,2484.6120100021362
3380,2485.379013776779
3381,2486.1330173015594
3382,2486.902020931244
3383,2487.6750247478485
3384,2488.443028450012
3385,2489.2150321006775
3386,2489.988035917282
3387,2490.7620396614075
3388,2491.530043363571
3389,2492.299047231674
3390,2493.0690507888794
3391,2493.842054605484
3392,2494.622058391571
3393,2495.397062063217
3394,2496.1790659427643
3395,2496.9590697288513
3396,2497.740073442459
3397,2498.505077123642
3398,2499.269080877304
3399,2500.0350844860077
3400,2500.8020882606506
3401,2501.5750920772552
3402,2502.352095603943
3403,2503.1170995235443
3404,2503.8841030597687
3405,2504.64510679245
3406,2505.4181106090546
3407,2506.1771142482758
3408,2506.949117898941
3409,2507.718121767044
3410,2508.480125427246
3411,2509.24812912941
3412,2510.0161328315735
3413,2510.782136440277
3414,2511.5531401634216
3415,2512.322143793106
3416,2513.0871477127075
3417,2513.861151456833
3418,2514.6291551589966
3419,2515.396158695221
3420,2516.1661624908447
3421,2516.9391663074493
3422,2517.710170030594
3423,2518.4941737651825
3424,2519.2721774578094
3425,2520.0501811504364
3426,2520.8341851234436
3427,2521.6271889209747
3428,2522.4241926670074
3429,2523.2191965579987
3430,2524.0172004699707
3431,2524.8242044448853
3432,2525.631208181381
3433,2526.434212207794
3434,2527.246216058731
3435,2528.0662200450897
3436,2528.876224040985
3437,2529.649227619171
3438,2530.4222314357758
3439,2531.2012350559235
3440,2531.9802389144897
3441,2532.7642426490784
3442,2533.552246570587
3443,2534.331250190735
3444,2535.116254091263
3445,2535.9002578258514
3446,2536.6882617473602
3447,2537.4652655124664
3448,2538.2422692775726
3449,2539.0222730636597
3450,2539.81227684021
3451,2540.592280626297
3452,2541.369284391403
3453,2542.1432881355286
3454,2542.910291671753
3455,2543.6802954673767
3456,2544.4462990760803
3457,2545.208302974701
3458,2545.967306613922
3459,2546.7233102321625
3460,2547.478313922882
3461,2548.233317375183
3462,2548.992321252823
3463,2549.7453248500824
3464,2550.497328519821
3465,2551.252331972122
3466,2552.00133562088
3467,2552.7513394355774
3468,2553.504343032837
3469,2554.265346765518
3470,2555.026350259781
3471,2555.7793538570404
3472,2556.537357568741
3473,2557.303361415863
3474,2558.0693650245667
3475,2558.8333687782288
3476,2559.5983724594116
3477,2560.3663761615753
3478,2561.1433799266815
3479,2561.922383546829
3480,2562.705387353897
3481,2563.4843912124634
3482,2564.252394914627
3483,2565.014398574829
3484,2565.778402328491
3485,2566.5364060401917
3486,2567.2934095859528
3487,2568.0484132766724
3488,2568.7964169979095
3489,2569.544420480728
3490,2570.291424036026
3491,2571.039427757263
3492,2571.778431415558
3493,2572.5154349803925
3494,2573.2554383277893
3495,2573.996442079544
3496,2574.7324454784393
3497,2575.4754490852356
3498,2576.2264528274536
3499,2576.9754564762115
3500,2577.7194600105286
3501,2578.4684636592865
3502,2579.226467370987
3503,2579.980470895767
3504,2580.734474658966
3505,2581.4924783706665
3506,2582.2444818019867
3507,2583.0014855861664
3508,2583.7484891414642
3509,2584.4994928836823
3510,2585.247496366501
3511,2585.9995000362396
3512,2586.7495036125183
3513,2587.5005073547363
3514,2588.2425107955933
3515,2588.9855144023895
3516,2589.728518009186
3517,2590.4785215854645
3518,2591.2305252552032
3519,2591.979528903961
3520,2592.7275326251984
3521,2593.479536294937
3522,2594.239539861679
3523,2594.993543624878
3524,2595.752547264099
3525,2596.5065507888794
3526,2597.26655459404
3527,2598.0195581912994
3528,2598.774561882019
3529,2599.5245654582977
3530,2600.2725689411163
3531,2601.027572631836
3532,2601.778576374054
3533,2602.540580034256
3534,2603.300583600998
3535,2604.054587364197
3536,2604.812591075897
3537,2605.5675945281982
3538,2606.3145983219147
3539,2607.0666019916534
3540,2607.815605401993
3541,2608.558609008789
3542,2609.3036127090454
3543,2610.0496163368225
3544,2610.7946197986603
3545,2611.5396234989166
3546,2612.280627012253
3547,2613.0216307640076
3548,2613.758634328842
3549,2614.500637769699
3550,2615.239641427994
3551,2615.9846448898315
3552,2616.728648662567
3553,2617.4716522693634
3554,2618.206655740738
3555,2618.9416592121124
3556,2619.6796629428864
3557,2620.416666507721
3558,2621.1566700935364
3559,2621.8986735343933
3560,2622.6476771831512
3561,2623.394680738449
3562,2624.140684366226
3563,2624.891688108444
3564,2625.6376917362213
3565,2626.384695291519
3566,2627.1326987743378
3567,2627.877702474594
3568,2628.6157059669495
3569,2629.360709667206
3570,2630.1007132530212
3571,2630.8447167873383
3572,2631.5897204875946
3573,2632.32772397995
3574,2633.0777275562286
3575,2633.825731277466
3576,2634.569734811783
3577,2635.310738325119
3578,2636.0477418899536
3579,2636.7627453804016
3580,2637.476748943329
3581,2638.200752258301
3582,2638.9237558841705
3583,2639.648759365082
3584,2640.3727629184723
3585,2641.103766441345
3586,2641.8287699222565
3587,2642.545773267746
3588,2643.270776987076
3589,2644.0047805309296
3590,2644.742784023285
3591,2645.491787672043
3592,2646.248791217804
3593,2647.0067949295044
3594,2647.769798517227
3595,2648.53680229187
3596,2649.3158061504364
3597,2650.100809812546
3598,2650.8868136405945
3599,2651.675817489624
3600,2652.4668214321136
3601,2653.270825147629
3602,2654.081829071045
3603,2654.896833181381
3604,2655.7158370018005
3605,2656.541841030121
3606,2657.3638451099396
3607,2658.1728489398956
3608,2658.988852739334
3609,2659.8038568496704
3610,2660.619860649109
3611,2661.4268646240234
3612,2662.241868495941
3613,2663.0538725852966
3614,2663.854876279831
3615,2664.6408801078796
3616,2665.445883989334
3617,2666.2558879852295
3618,2667.058891773224
3619,2667.853895664215
3620,2668.641899585724
3621,2669.4239032268524
3622,2670.207906961441
3623,2671.0099110603333
3624,2671.827914953232
3625,2672.6409187316895
3626,2673.452922821045
3627,2674.263926744461
3628,2675.0819306373596
3629,2675.9019346237183
3630,2676.7279386520386
3631,2677.5549426078796
3632,2678.3709466457367
3633,2679.194950580597
3634,2680.019954442978
3635,2680.8429584503174
3636,2681.6529624462128
3637,2682.4669663906097
3638,2683.2669701576233
3639,2684.072974205017
3640,2684.8679778575897
3641,2685.6549818515778
3642,2686.427985429764
3643,2687.2119891643524
3644,2688.0019931793213
3645,2688.7929968833923
3646,2689.592000722885
3647,2690.395004749298
3648,2691.2010085582733
3649,2692.005012512207
3650,2692.801016330719
3651,2693.6050202846527
3652,2694.410024166107
3653,2695.2180280685425
3654,2696.0170319080353
3655,2696.637034893036
3656,2697.57603931427
3657,2698.406043291092
3658,2699.22504734993
3659,2700.0290513038635
3660,2700.8380551338196
3661,2701.627058982849
3662,2702.4220628738403
3663,2703.20906662941
3664,2703.99907040596
3665,2704.782074213028
3666,2705.5680780410767
3667,2706.36808180809
3668,2707.1910858154297
3669,2708.012089729309
3670,2708.831093788147
3671,2709.644097805023
3672,2710.4541015625
3673,2711.2621054649353
3674,2712.07110953331
3675,2712.8681132793427
3676,2713.6541171073914
3677,2714.4421207904816
3678,2715.2271246910095
3679,2716.0121285915375
3680,2716.8031322956085
3681,2717.582136154175
3682,2718.3611397743225
3683,2719.1411435604095
3684,2719.928147315979
3685,2720.713151216507
3686,2721.4941549301147
3687,2722.287158727646
3688,2723.074162721634
3689,2723.8591663837433
3690,2724.640170097351
3691,2725.422173976898
3692,2726.203177690506
3693,2726.9791815280914
3694,2727.745185136795
3695,2728.514189004898
3696,2729.2821927070618
3697,2730.054196357727
3698,2730.8231999874115
3699,2731.602203845978
3700,2732.377207517624
3701,2733.1582114696503
3702,2733.9332151412964
3703,2734.706218957901
3704,2735.4722225666046
3705,2736.2292261123657
3706,2736.987229824066
3707,2737.749233484268
3708,2738.5122373104095
3709,2739.26824092865
3710,2740.0312445163727
3711,2740.7882483005524
3712,2741.546252012253
3713,2742.2962555885315
3714,2743.051259279251
3715,2743.7992627620697
3716,2744.5492663383484
3717,2745.291270017624
3718,2746.0252735614777
3719,2746.752277135849
3720,2747.4892807006836
3721,2748.224284172058
3722,2748.9612877368927
3723,2749.706291437149
3724,2750.4442949295044
3725,2751.1922986507416
3726,2751.9363021850586
3727,2752.679305791855
3728,2753.420309305191
3729,2754.164312839508
3730,2754.9063165187836
3731,2755.6553201675415
3732,2756.3973236083984
3733,2757.149327278137
3734,2757.8953309059143
3735,2758.6433346271515
3736,2759.3883380889893
3737,2760.1343417167664
3738,2760.886345386505
3739,2761.640349149704
3740,2762.4033527374268
3741,2763.160356283188
3742,2763.9203600883484
3743,2764.6793637275696
3744,2765.448367357254
3745,2766.210371017456
3746,2766.974374771118
3747,2767.742378473282
3748,2768.5123822689056
3749,2769.2853860855103
3750,2770.0593898296356
3751,2770.8423936367035
3752,2771.6343972682953
3753,2772.425401210785
3754,2773.219404935837
3755,2774.0024087429047
3756,2774.7744126319885
3757,2775.5494163036346
3758,2776.3144199848175
3759,2777.0714235305786
3760,2777.8304274082184
3761,2778.5874309539795
3762,2779.3394346237183
3763,2780.0904381275177
3764,2780.8424417972565
3765,2781.595445394516
3766,2782.349449157715
3767,2783.095452785492
3768,2783.8454563617706
3769,2784.59845995903
3770,2785.35546374321
3771,2786.1064672470093
3772,2786.8654708862305
3773,2787.6274745464325
3774,2788.385478258133
3775,2789.152482032776
3776,2789.924485683441
3777,2790.6904895305634
3778,2791.459493160248
3779,2792.2324969768524
3780,2792.996500492096
3781,2793.7695043087006
3782,2794.542508125305
3783,2795.3145117759705
3784,2796.0795154571533
3785,2796.8455193042755
3786,2797.611522912979
3787,2798.373526573181
3788,2799.12353014946
3789,2799.8900339603424
3790,2800.6565375328064
3791,2801.3945412635803
3792,2802.128544807434
3793,2802.8585481643677
3794,2803.5795516967773
3795,2804.3115553855896
3796,2805.0385587215424
3797,2805.7665622234344
3798,2806.5015659332275
3799,2807.236569404602
3800,2807.9745728969574
3801,2808.716576576233
3802,2809.457580089569
3803,2810.2055838108063
3804,2810.9485874176025
3805,2811.6905908584595
3806,2812.4365944862366
3807,2813.186598300934
3808,2813.935601711273
3809,2814.687605381012
3810,2815.4376091957092
3811,2816.1916127204895
3812,2816.9556164741516
3813,2817.7206201553345
3814,2818.4746236801147
3815,2819.235627412796
3816,2819.983631134033
3817,2820.7296347618103
3818,2821.477638244629
3819,2822.223641872406
3820,2822.9736454486847
3821,2823.718649148941
3822,2824.4736528396606
3823,2825.2286562919617
3824,2825.9796600341797
3825,2826.7336637973785
3826,2827.4886672496796
3827,2828.2426710128784
3828,2828.987674474716
3829,2829.739678144455
3830,2830.490681886673
3831,2831.2406854629517
3832,2831.996689081192
3833,2832.7466926574707
3834,2833.494696378708
3835,2834.2456998825073
3836,2835.000703573227
3837,2835.7587072849274
3838,2836.511710882187
3839,2837.27871465683
3840,2838.039718389511
3841,2838.7927219867706
3842,2839.553725719452
3843,2840.3117294311523
3844,2841.0637328624725
3845,2841.818736553192
3846,2842.56974029541
3847,2843.3267438411713
3848,2844.075747489929
3849,2844.822751045227
3850,2845.568754673004
3851,2846.3237583637238
3852,2847.0757620334625
3853,2847.823765516281
3854,2848.574769258499
3855,2849.334772825241
3856,2850.0927765369415
3857,2850.852780342102
3858,2851.6137838363647
3859,2852.374787569046
3860,2853.1297912597656
3861,2853.8937950134277
3862,2854.65779876709
3863,2855.4228024482727
3864,2856.1838059425354
3865,2856.9478096961975
3866,2857.704813480377
3867,2858.4618170261383
3868,2859.227820634842
3869,2859.994824409485
3870,2860.755828142166
3871,2861.5118317604065
3872,2862.2638354301453
3873,2863.0148389339447
3874,2863.7668426036835
3875,2864.524846315384
3876,2865.273849964142
3877,2866.0288536548615
3878,2866.779857158661
3879,2867.5248608589172
3880,2868.2658643722534
3881,2869.009868144989
3882,2869.748871564865
3883,2870.4868750572205
3884,2871.2368788719177
3885,2871.839881658554
3886,2872.7338860034943
3887,2873.488889694214
3888,2874.2438933849335
3889,2874.999897003174
3890,2875.758900642395
3891,2876.523904323578
3892,2877.28590798378
3893,2878.0459117889404
3894,2878.806915283203
3895,2879.5689191818237
3896,2880.3289227485657
3897,2881.0909264087677
3898,2881.8609302043915
3899,2882.618933916092
3900,2883.393937587738
3901,2884.1629412174225
3902,2884.925945043564
3903,2885.692948579788
3904,2886.4399523735046
3905,2887.193955898285
3906,2887.9499595165253
3907,2888.693963289261
3908,2889.4399666786194
3909,2890.1849703788757
3910,2890.929974079132
3911,2891.673977613449
3912,2892.4219810962677
3913,2893.1709847450256
3914,2893.9089884757996
3915,2894.6509919166565
3916,2895.3869955539703
3917,2896.122999191284
3918,2896.8610026836395
3919,2897.599006175995
3920,2898.3390097618103
3921,2899.0880134105682
3922,2899.8390171527863
3923,2900.587020635605
3924,2901.3370242118835
3925,2902.0780279636383
3926,2902.8500316143036
3927,2903.624035358429
3928,2904.406039237976
3929,2905.181042909622
3930,2905.9520466327667
3931,2906.711050271988
3932,2907.4660539627075
3933,2908.2130575180054
3934,2908.94806098938
3935,2909.680064678192
3936,2910.4170682430267
3937,2911.155071735382
3938,2911.8930752277374
3939,2912.634078979492
3940,2913.3900825977325
3941,2914.145086288452
3942,2914.905089855194
3943,2915.6660935878754
3944,2916.4260971546173
3945,2917.1851007938385
3946,2917.947104692459
3947,2918.7181084156036
3948,2919.4911119937897
3949,2920.268115758896
3950,2921.047119617462
3951,2921.8161232471466
3952,2922.5911269187927
3953,2923.3641307353973
3954,2924.1441345214844
3955,2924.9211382865906
3956,2925.690141916275
3957,2926.4681458473206
3958,2927.2461495399475
3959,2928.0241532325745
3960,2928.795156955719
3961,2929.567160844803
3962,2930.340164422989
3963,2931.106168270111
3964,2931.8761718273163
3965,2932.6271755695343
3966,2933.375179052353
3967,2934.1191828250885
3968,2934.8581862449646
3969,2935.601189851761
3970,2936.3421936035156
3971,2937.0841970443726
3972,2937.826200723648
3973,2938.5692043304443
3974,2939.3182079792023
3975,2940.060211420059
3976,2940.807214975357
3977,2941.5502185821533
3978,2942.3002223968506
3979,2943.036225795746
3980,2943.7762293815613
3981,2944.52623295784
3982,2945.2662365436554
3983,2946.0142402648926
3984,2946.7612438201904
3985,2947.5052473545074
3986,2948.2512509822845
3987,2948.990254640579
3988,2949.7342581748962
3989,2950.483261823654
3990,2951.230265378952
3991,2951.9772691726685
3992,2952.7312726974487
3993,2953.4932763576508
3994,2954.2532801628113
3995,2955.0152838230133
3996,2955.776287317276
3997,2956.542291164398
3998,2957.312294960022
3999,2958.089298725128
4000,2958.8633024692535
4001,2959.6333060264587
4002,2960.409309864044
4003,2961.193313598633
4004,2961.9803173542023
4005,2962.7623212337494
4006,2963.5423250198364
4007,2964.313328742981
4008,2965.088332414627
4009,2965.8723361492157
4010,2966.6613399982452
4011,2967.4553439617157
4012,2968.2573478221893
4013,2969.0343515872955
4014,2969.824355363846
4015,2970.6073591709137
4016,2971.3913629055023
4017,2972.1683666706085
4018,2972.9383704662323
4019,2973.7123742103577
4020,2974.481377840042
4021,2975.2573816776276
4022,2976.0333852767944
4023,2976.803389072418
4024,2977.573392868042
4025,2978.349396467209
4026,2979.129400253296
4027,2979.9104042053223
4028,2980.7064080238342
4029,2981.4974117279053
4030,2982.281415462494
4031,2983.0734193325043
4032,2983.859423160553
4033,2984.6324269771576
4034,2985.396430492401
4035,2986.1614344120026
4036,2986.9394381046295
4037,2987.713441848755
4038,2988.4944455623627
4039,2989.2774493694305
4040,2990.06845331192
4041,2990.859457015991
4042,2991.627460718155
4043,2992.39946436882
4044,2993.167468070984
4045,2993.9404718875885
4046,2994.7044756412506
4047,2995.4664793014526
4048,2996.2294828891754
4049,2996.9914865493774
4050,2997.7454903125763
4051,2998.4994938373566
4052,2999.2484974861145
4053,3000.003501176834
4054,3000.770504951477
4055,3001.5435087680817
4056,3002.318512439728
4057,3003.0885162353516
4058,3003.8635199069977
4059,3004.6465237140656
4060,3005.4195272922516
4061,3006.195531129837
4062,3006.9685349464417
4063,3007.745538711548
4064,3008.515542268753
4065,3009.277545928955
4066,3010.046549797058
4067,3010.814553499222
4068,3011.5855572223663
4069,3012.356560945511
4070,3013.118564605713
4071,3013.882568359375
4072,3014.65257191658
4073,3015.4285757541656
4074,3016.205579519272
4075,3016.977583169937
4076,3017.7565870285034
4077,3018.527590751648
4078,3019.292594432831
4079,3020.0605981349945
4080,3020.8406019210815
4081,3021.6046056747437
4082,3022.3596093654633
4083,3023.120612859726
4084,3023.873616695404
4085,3024.6256201267242
4086,3025.3756239414215
4087,3026.1246275901794
4088,3026.861631155014
4089,3027.592634677887
4090,3028.3256380558014
4091,3029.0616416931152
4092,3029.8046452999115
4093,3030.5496487617493
4094,3031.304652452469
4095,3032.066656112671
4096,3032.832659959793
4097,3033.6016635894775
4098,3034.3796672821045
4099,3035.15367102623
4100,3035.9366748332977
4101,3036.7226786613464
4102,3037.5126824378967
4103,3038.3026864528656
4104,3039.0976901054382
4105,3039.885694026947
4106,3040.6716978549957
4107,3041.4497015476227
4108,3042.2307052612305
4109,3043.005709171295
4110,3043.7727127075195
4111,3044.5377163887024
4112,3045.305720090866
4113,3046.07372379303
4114,3046.834727525711
4115,3047.596731185913
4116,3048.360734939575
4117,3049.128738641739
4118,3049.907742500305
4119,3050.672746181488
4120,3051.43674993515
4121,3052.197753429413
4122,3052.959757089615
4123,3053.7197608947754
4124,3054.474764585495
4125,3055.2307682037354
4126,3055.985771894455
4127,3056.7407755851746
4128,3057.4997792243958
4129,3058.2577826976776
4130,3059.015786409378
4131,3059.77779006958
4132,3060.531793832779
4133,3061.293797492981
4134,3062.050801038742
4135,3062.8138048648834
4136,3063.565808534622
4137,3064.3228120803833
4138,3065.0788156986237
4139,3065.834819316864
4140,3066.588823080063
4141,3067.333826780319
4142,3068.081830263138
4143,3068.827833890915
4144,3069.5828375816345
4145,3070.335841178894
4146,3071.098844766617
4147,3071.8718485832214
4148,3072.6338522434235
4149,3073.396856069565
4150,3074.153859615326
4151,3074.9138634204865
4152,3075.682867050171
4153,3076.441870689392
4154,3077.1978743076324
4155,3077.950877904892
4156,3078.70388174057
4157,3079.4518852233887
4158,3080.2008888721466
4159,3080.9468924999237
4160,3081.697896003723
4161,3082.446899652481
4162,3083.1909034252167
4163,3083.929906845093
4164,3084.6799104213715
4165,3085.4259140491486
4166,3086.1799178123474
4167,3086.931921482086
4168,3087.681925058365
4169,3088.4219286441803
4170,3089.1679322719574
4171,3089.9119358062744
4172,3090.6589393615723
4173,3091.4029428958893
4174,3092.154946565628
4175,3092.9019503593445
4176,3093.651953935623
4177,3094.3949575424194
4178,3095.132961034775
4179,3095.876964569092
4180,3096.6139681339264
4181,3097.342971801758
4182,3098.080975294113
4183,3098.8239789009094
4184,3099.5709824562073
4185,3100.322986125946
4186,3101.0789897441864
4187,3101.8429934978485
4188,3102.610997200012
4189,3103.3700008392334
4190,3104.1330046653748
4191,3104.885008096695
4192,3105.6430118083954
4193,3106.393015384674
4194,3107.147019147873
4195,3107.89302277565
4196,3108.6360263824463
4197,3109.3790299892426
4198,3110.1250336170197
4199,3110.878037214279
4200,3111.627040863037
4201,3112.366044282913
4202,3113.1060478687286
4203,3113.8410515785217
4204,3114.581055164337
4205,3115.3160586357117
4206,3116.059062242508
4207,3116.7990658283234
4208,3117.544069290161
4209,3118.2910730838776
4210,3119.040076494217
4211,3119.789080142975
4212,3120.532083749771
4213,3121.263087272644
4214,3121.9900908470154
4215,3122.7370944023132
4216,3123.4720981121063
4217,3124.2051014900208
4218,3124.9431052207947
4219,3125.68110871315
4220,3126.4201123714447
4221,3127.1621158123016
4222,3127.9121193885803
4223,3128.6681232452393
4224,3129.426126718521
4225,3130.183130502701
4226,3130.9491341114044
4227,3131.705137729645
4228,3132.4731414318085
4229,3133.2421452999115
4230,3134.010149002075
4231,3134.7851526737213
4232,3135.550156354904
4233,3136.3161602020264
4234,3137.0881638526917
4235,3137.860167503357
4236,3138.6311712265015
4237,3139.386174917221
4238,3140.13817858696
4239,3140.889182329178
4240,3141.641185760498
4241,3142.3851895332336
4242,3143.1331930160522
4243,3143.883196592331
4244,3144.648200273514
4245,3145.4102041721344
4246,3146.1672077178955
4247,3146.928211450577
4248,3147.6992151737213
4249,3148.4722187519073
4250,3149.248222589493
4251,3150.0292263031006
4252,3150.81823015213
4253,3151.6082339286804
4254,3152.39923787117
4255,3153.1852416992188
4256,3153.9562454223633
4257,3154.7172491550446
4258,3155.468252658844
4259,3156.2252564430237
4260,3156.992259979248
4261,3157.7632637023926
4262,3158.5382676124573
4263,3159.322271347046
4264,3160.0922751426697
4265,3160.8582787513733
4266,3161.626282453537
4267,3162.3952860832214
4268,3163.166289806366
4269,3163.9372935295105
4270,3164.7022972106934
4271,3165.4793009757996
4272,3166.255304813385
4273,3167.030308485031
4274,3167.8123123645782
4275,3168.5943162441254
4276,3169.3683199882507
4277,3170.1453235149384
4278,3170.9263274669647
4279,3171.703331232071
4280,3172.496335029602
4281,3173.2863388061523
4282,3174.06734251976
4283,3174.8463463783264
4284,3175.632350206375
4285,3176.4093539714813
4286,3177.19535779953
4287,3177.9813616275787
4288,3178.7573652267456
4289,3179.531368970871
4290,3180.313372850418
4291,3181.091376543045
4292,3181.874380350113
4293,3182.6503841876984
4294,3183.4233877658844
4295,3184.1923916339874
4296,3184.9693953990936
4297,3185.7453989982605
4298,3186.5254027843475
4299,3187.3074066638947
4300,3188.078410387039
4301,3188.857414007187
4302,3189.637417793274
4303,3190.4244215488434
4304,3191.213425397873
4305,3191.99342918396
4306,3192.770432949066
4307,3193.550436735153
4308,3194.32844042778
4309,3195.111444234848
4310,3195.891448020935
4311,3196.6754517555237
4312,3197.45645570755
4313,3198.231459379196
4314,3199.009463071823
4315,3199.784466981888
4316,3200.556470632553
4317,3201.3284742832184
4318,3202.0974781513214
4319,3202.863481760025
4320,3203.6294853687286
4321,3204.4004893302917
4322,3205.188493013382
4323,3205.9794969558716
4324,3206.779500722885
4325,3207.5845046043396
4326,3208.37450838089
4327,3209.177512407303
4328,3209.9765162467957
4329,3210.78152012825
4330,3211.588523864746
4331,3212.3955278396606
4332,3213.1975317001343
4333,3213.9945356845856
4334,3214.7875394821167
4335,3215.5835433006287
4336,3216.3795471191406
4337,3217.1675510406494
4338,3217.959554672241
4339,3218.7385585308075
4340,3219.517562389374
4341,3220.3045661449432
4342,3221.0815699100494
4343,3221.8545734882355
4344,3222.6335773468018
4345,3223.4165811538696
4346,3224.187584877014
4347,3224.957588672638
4348,3225.7235922813416
4349,3226.4905960559845
4350,3227.261599779129
4351,3228.034603357315
4352,3228.804607152939
4353,3229.5706107616425
4354,3230.330614566803
4355,3231.1026182174683
4356,3231.874622106552
4357,3232.6436257362366
4358,3233.417629480362
4359,3234.179633140564
4360,3234.9456367492676
4361,3235.7046406269073
4362,3236.4586441516876
4363,3237.2046477794647
4364,3237.952651500702
4365,3238.6986548900604
4366,3239.442658662796
4367,3240.187662124634
4368,3240.9366657733917
4369,3241.6726694107056
4370,3242.4146728515625
4371,3243.158676624298
4372,3243.9066801071167
4373,3244.653683900833
4374,3245.408687353134
4375,3246.157691001892
4376,3246.907694578171
4377,3247.660698413849
4378,3248.41770195961
4379,3249.176705598831
4380,3249.923709154129
4381,3250.6787128448486
4382,3251.4327166080475
4383,3252.1817202568054
4384,3252.9257237911224
4385,3253.6667273044586
4386,3254.4137308597565
4387,3255.158734560013
4388,3255.9057381153107
4389,3256.6557416915894
4390,3257.399745464325
4391,3258.1507489681244
4392,3258.8977525234222
4393,3259.6397562026978
4394,3260.380759716034
4395,3261.12376332283
4396,3261.8687670230865
4397,3262.6127705574036
4398,3263.3697743415833
4399,3264.118777990341
4400,3264.8647813796997
4401,3265.609785079956
4402,3266.3447885513306
4403,3267.0677921772003
4404,3267.791795730591
4405,3268.5157990455627
4406,3269.2538027763367
4407,3270.010806322098
4408,3270.761810064316
4409,3271.5198135375977
4410,3272.2758173942566
4411,3273.027820825577
4412,3273.7798244953156
4413,3274.521828174591
4414,3275.2588317394257
4415,3275.9978353977203
4416,3276.732838869095
4417,3277.4648423194885
4418,3278.1988458633423
4419,3278.937849521637
4420,3279.6748530864716
4421,3280.4068565368652
4422,3281.142860174179
4423,3281.8818638324738
4424,3282.619867324829
4425,3283.3628709316254
4426,3284.125874519348
4427,3284.877878189087
4428,3285.6308817863464
4429,3286.386885404587
4430,3287.1428892612457
4431,3287.899892807007
4432,3288.6498963832855
4433,3289.404900074005
4434,3290.1609036922455
4435,3290.9099073410034
4436,3291.6549110412598
4437,3292.397914648056
4438,3293.1409182548523
4439,3293.8789217472076
4440,3294.6159253120422
4441,3295.354928970337
4442,3296.0999324321747
4443,3296.8469359874725
4444,3297.5959396362305
4445,3298.3369433879852
4446,3299.0829467773438
4447,3299.8269505500793
4448,3300.5649540424347
4449,3301.2989575862885
4450,3302.0399610996246
4451,3302.77996468544
4452,3303.5199682712555
4453,3304.2629718780518
4454,3305.010975599289
4455,3305.7609791755676
4456,3306.5079827308655
4457,3307.262986421585
4458,3308.0239901542664
4459,3308.7999937534332
4460,3309.564997434616
4461,3310.351001262665
4462,3311.1270051002502
4463,3311.913008928299
4464,3312.7050127983093
4465,3313.4820165634155
4466,3314.2590203285217
4467,3315.036024093628
4468,3315.8100278377533
4469,3316.5790314674377
4470,3317.3570351600647
4471,3318.1320390701294
4472,3318.9040427207947
4473,3319.675046443939
4474,3320.4510502815247
4475,3321.2470541000366
4476,3322.0330579280853
4477,3322.815061569214
4478,3323.59006524086
4479,3324.359069108963
4480,3325.1200728416443
4481,3325.8870763778687
4482,3326.6570801734924
4483,3327.4350838661194
4484,3328.2120876312256
4485,3328.9940915107727
4486,3329.781095266342
4487,3330.5730991363525
4488,3331.3521027565002
4489,3332.1461067199707
4490,3332.9441106319427
4491,3333.742114305496
4492,3334.5471181869507
4493,3335.3521223068237
4494,3336.1461260318756
4495,3336.938129901886
4496,3337.739133834839
4497,3338.540137529373
4498,3339.3291413784027
4499,3340.1101450920105
4500,3340.888149023056
4501,3341.661152601242
4502,3342.426156282425
4503,3343.1961600780487
4504,3343.9641637802124
4505,3344.7301676273346
4506,3345.499171257019
4507,3346.262174844742
4508,3347.0371787548065
4509,3347.8141825199127
4510,3348.599186182022
4511,3349.3861899375916
4512,3350.1791939735413
4513,3350.9701976776123
4514,3351.7622015476227
4515,3352.5602054595947
4516,3353.3602092266083
4517,3354.1632130146027
4518,3354.9672169685364
4519,3355.77322101593
4520,3356.5762248039246
4521,3357.3772287368774
4522,3358.1812324523926
4523,3358.983236312866
4524,3359.7822403907776
4525,3360.580244064331
4526,3361.3742480278015
4527,3362.1752519607544
4528,3362.9762556552887
4529,3363.77325963974
4530,3364.577263355255
4531,3365.3822672367096
4532,3366.1832711696625
4533,3366.993275165558
4534,3367.7952790260315
4535,3368.595282793045
4536,3369.3992867469788
4537,3370.202290534973
4538,3371.0172946453094
4539,3371.8282985687256
4540,3372.6323022842407
4541,3373.431306362152
4542,3374.2373101711273
4543,3375.0453140735626
4544,3375.852318048477
4545,3376.659321784973
4546,3377.463325738907
4547,3378.2733297348022
4548,3379.087333679199
4549,3379.902337551117
4550,3380.714341402054
4551,3381.5153453350067
4552,3382.3243491649628
4553,3383.137353181839
4554,3383.9473571777344
4555,3384.7513608932495
4556,3385.5503647327423
4557,3386.355368614197
4558,3387.1623725891113
4559,3387.966376543045
4560,3388.762380361557
4561,3389.5493841171265
4562,3390.3393878936768
4563,3391.137391805649
4564,3391.927395582199
4565,3392.715399503708
4566,3393.4974031448364
4567,3394.2874071598053
4568,3395.084410905838
4569,3395.8814148902893
4570,3396.6844186782837
4571,3397.494422674179
4572,3398.290426492691
4573,3399.086430311203
4574,3399.881434202194
4575,3400.6854379177094
4576,3401.4984419345856
4577,3402.2964458465576
4578,3403.0954496860504
4579,3403.902453660965
4580,3404.7014575004578
4581,3405.4964611530304
4582,3406.2814650535583
4583,3407.062468767166
4584,3407.842472553253
4585,3408.62247633934
4586,3409.410480260849
4587,3410.193484067917
4588,3410.9724876880646
4589,3411.7554914951324
4590,3412.5434954166412
4591,3413.3414990901947
4592,3414.1395030021667
4593,3414.952507019043
4594,3415.7525107860565
4595,3416.5565147399902
4596,3417.3665187358856
4597,3418.1735224723816
4598,3418.9715263843536
4599,3419.766530275345
4600,3420.575534105301
4601,3421.373538017273
4602,3422.166541814804
4603,3422.9505455493927
4604,3423.7365493774414
4605,3424.5295531749725
4606,3425.320557117462
4607,3426.117560863495
4608,3426.9065647125244
4609,3427.698568582535
4610,3428.496572494507
4611,3429.304576396942
4612,3430.1235802173615
4613,3430.9385843276978
4614,3431.747588157654
4615,3432.557592153549
4616,3433.3635959625244
4617,3434.1645998954773
4618,3434.958603620529
4619,3435.757607460022
4620,3436.5496113300323
4621,3437.336615085602
4622,3438.117619037628
4623,3438.8916227817535
4624,3439.6646263599396
4625,3440.438630104065
4626,3441.2146339416504
4627,3441.984637737274
4628,3442.75764131546
4629,3443.530645132065
4630,3444.307648897171
4631,3445.0786526203156
4632,3445.8486564159393
4633,3446.6226601600647
4634,3447.39266371727
4635,3448.1626675128937
4636,3448.9306712150574
4637,3449.6946749687195
4638,3450.473678588867
4639,3451.248682498932
4640,3452.0316863059998
4641,3452.818690061569
4642,3453.594693660736
4643,3454.3756976127625
4644,3455.1697013378143
4645,3455.9597051143646
4646,3456.748708963394
4647,3457.5257127285004
4648,3458.3077166080475
4649,3459.0837202072144
4650,3459.858724117279
4651,3460.631727695465
4652,3461.403731584549
4653,3462.1777353286743
4654,3462.956738948822
4655,3463.73774266243
4656,3464.519746541977
4657,3465.299750328064
4658,3466.0877542495728
4659,3466.877758026123
4660,3467.6637618541718
4661,3468.450765609741
4662,3469.2407693862915
4663,3470.0187730789185
4664,3470.8017768859863
4665,3471.588780641556
4666,3472.3907845020294
4667,3473.1807885169983
4668,3473.9677922725677
4669,3474.737795829773
4670,3475.5117995738983
4671,3476.2798035144806
4672,3477.0348069667816
4673,3477.7868106365204
4674,3478.5338141918182
4675,3479.2628178596497
4676,3480.003821372986
4677,3480.744824886322
4678,3481.49382853508
4679,3482.2488322257996
4680,3483.003835916519
4681,3483.750839471817
4682,3484.5038430690765
4683,3485.253846883774
4684,3486.0038504600525
4685,3486.751853942871
4686,3487.5078575611115
4687,3488.2538611888885
4688,3488.990864753723
4689,3489.7228684425354
4690,3490.4428718090057
4691,3491.164875268936
4692,3491.8918788433075
4693,3492.623882293701
4694,3493.356885910034
4695,3494.0988895893097
4696,3494.849893093109
4697,3495.5958967208862
4698,3496.345900297165
4699,3497.0909039974213
4700,3497.8289074897766
4701,3498.5649111270905
4702,3499.303914785385
4703,3500.048918247223
4704,3500.7939219474792
4705,3501.5299253463745
4706,3502.27392911911
4707,3503.0119326114655
4708,3503.749936103821
4709,3504.4899396896362
4710,3505.2319433689117
4711,3505.9769468307495
4712,3506.721950531006
4713,3507.465954065323
4714,3508.2069578170776
4715,3508.9529614448547
4716,3509.6949648857117
4717,3510.4459686279297
4718,3511.1929721832275
4719,3511.9379756450653
4720,3512.6889793872833
4721,3513.4339830875397
4722,3514.18598651886
4723,3514.936990261078
4724,3515.695993900299
4725,3516.4519975185394
4726,3517.2110011577606
4727,3517.974004983902
4728,3518.7420086860657
4729,3519.5120124816895
4730,3520.283016204834
4731,3521.05601978302
4732,3521.8400235176086
4733,3522.621027469635
4734,3523.399031162262
4735,3524.177034854889
4736,3524.9500386714935
4737,3525.7130422592163
4738,3526.4770460128784
4739,3527.234049797058
4740,3527.989053249359
4741,3528.7360570430756
4742,3529.4940605163574
4743,3530.2480642795563
4744,3531.003067970276
4745,3531.7610716819763
4746,3532.5170753002167
4747,3533.271078824997
4748,3534.032082557678
4749,3534.7940862178802
4750,3535.5530898571014
4751,3536.30309343338
4752,3537.0500972270966
4753,3537.7951006889343
4754,3538.5441043376923
4755,3539.2871079444885
4756,3540.026111602783
4757,3540.7671151161194
4758,3541.5081186294556
4759,3542.2491223812103
4760,3542.994125843048
4761,3543.7471294403076
4762,3544.4991331100464
4763,3545.252136707306
4764,3546.0151405334473
4765,3546.7771441936493
4766,3547.543147802353
4767,3548.304151535034
4768,3549.061155319214
4769,3549.823158979416
4770,3550.5901625156403
4771,3551.3561663627625
4772,3552.1101698875427
4773,3552.866173505783
4774,3553.618177175522
4775,3554.366180896759
4776,3555.113184452057
4777,3555.8651881217957
4778,3556.6121916770935
4779,3557.3581953048706
4780,3558.1081988811493
4781,3558.8542025089264
4782,3559.6012060642242
4783,3560.358209848404
4784,3561.1092133522034
4785,3561.8592171669006
4786,3562.599220752716
4787,3563.33322429657
4788,3564.0632276535034
4789,3564.787231206894
4790,3565.5292348861694
4791,3566.2582383155823
4792,3566.990241765976
4793,3567.7242453098297
4794,3568.4612488746643
4795,3569.200252532959
4796,3569.954256296158
4797,3570.724259853363
4798,3571.5032637119293
4799,3572.2772674560547
4800,3573.0582711696625
4801,3573.842274904251
4802,3574.6232788562775
4803,3575.4042825698853
4804,3576.187286376953
4805,3576.9892902374268
4806,3577.7902941703796
4807,3578.601298093796
4808,3579.4163019657135
4809,3580.223305940628
4810,3581.01730966568
4811,3581.815313577652
4812,3582.609317302704
4813,3583.3923211097717
4814,3584.1653249263763
4815,3584.936328649521
4816,3585.6993322372437
4817,3586.4613358974457
4818,3587.209339618683
4819,3587.9643433094025
4820,3588.7273468971252
4821,3589.49835062027
4822,3590.2583544254303
4823,3591.0313580036163
4824,3591.8133618831635
4825,3592.598365545273
4826,3593.3743693828583
4827,3594.1513731479645
4828,3594.92537689209
4829,3595.697380542755
4830,3596.4763844013214
4831,3597.2723882198334
4832,3598.0783920288086
4833,3598.8893959522247
4834,3599.681399822235
4835,3600.477403640747
4836,3601.2694075107574
4837,3602.0524113178253
4838,3602.840415239334
4839,3603.629418849945
4840,3604.433422803879
4841,3605.244426727295
4842,3606.0464305877686
4843,3606.8394343852997
4844,3607.6374382972717
4845,3608.4394421577454
4846,3609.2374460697174
4847,3610.03644990921
4848,3610.8294537067413
4849,3611.618457555771
4850,3612.4044613838196
4851,3613.1894652843475
4852,3613.9774689674377
4853,3614.7684729099274
4854,3615.5614767074585
4855,3616.350480556488
4856,3617.143484354019
4857,3617.9514882564545
4858,3618.764492034912
4859,3619.5874960422516
4860,3620.397500038147
4861,3621.2075040340424
4862,3622.02250790596
4863,3622.8465118408203
4864,3623.6885159015656
4865,3624.524519920349
4866,3625.3555240631104
4867,3626.171527862549
4868,3626.986531972885
4869,3627.801535844803
4870,3628.620539665222
4871,3629.4325437545776
4872,3630.254547595978
4873,3631.0665516853333
4874,3631.8935556411743
4875,3632.710559606552
4876,3633.5295634269714
4877,3634.354567527771
4878,3635.168571472168
4879,3635.978575229645
4880,3636.791579246521
4881,3637.6115832328796
4882,3638.434587240219
4883,3639.2685911655426
4884,3640.094595193863
4885,3640.923599243164
4886,3641.748603105545
4887,3642.5686070919037
4888,3643.3896112442017
4889,3644.2226152420044
4890,3645.0516192913055
4891,3645.8686232566833
4892,3646.6826269626617
4893,3647.511631011963
4894,3648.3316349983215
4895,3649.15163898468
4896,3649.9786429405212
4897,3650.784646987915
4898,3651.593650817871
4899,3652.408654689789
4900,3653.2146587371826
4901,3654.022662639618
4902,3654.8216664791107
4903,3655.6216702461243
4904,3656.425674200058
4905,3657.226678133011
4906,3658.0286819934845
4907,3658.8196856975555
4908,3659.610689640045
4909,3660.396693468094
4910,3661.184697151184
4911,3661.9757010936737
4912,3662.7567048072815
4913,3663.5447084903717
4914,3664.3357124328613
4915,3665.1257162094116
4916,3665.919720172882
4917,3666.7037239074707
4918,3667.493727684021
4919,3668.289731502533
4920,3669.0777354240417
4921,3669.8597390651703
4922,3670.6377427577972
4923,3671.4297466278076
4924,3672.2127504348755
4925,3672.9947543144226
4926,3673.782757997513
4927,3674.5707619190216
4928,3675.3517656326294
4929,3676.1417694091797
4930,3676.922773361206
4931,3677.6947770118713
4932,3678.452780723572
4933,3679.214784383774
4934,3679.9727880954742
4935,3680.735791683197
4936,3681.512795448303
4937,3682.2947993278503
4938,3683.071802854538
4939,3683.8508067131042
4940,3684.628810405731
4941,3685.413814306259
4942,3686.2058181762695
4943,3686.989821910858
4944,3687.769825696945
4945,3688.555829524994
4946,3689.343833208084
4947,3690.129837036133
4948,3690.919840812683
4949,3691.704844713211
4950,3692.479848384857
4951,3693.2608523368835
4952,3694.0358560085297
4953,3694.8058598041534
4954,3695.5958635807037
4955,3696.365867137909
4956,3697.142870903015
4957,3697.922874689102
4958,3698.702878475189
4959,3699.472882270813
4960,3700.2418859004974
4961,3701.0188896656036
4962,3701.784893512726
4963,3702.5538971424103
4964,3703.319900751114
4965,3704.0789046287537
4966,3704.848908185959
4967,3705.6209120750427
4968,3706.390915632248
4969,3707.162919521332
4970,3707.9389231204987
4971,3708.7199268341064
4972,3709.500930786133
4973,3710.293934583664
4974,3711.086938381195
4975,3711.897942304611
4976,3712.698946237564
4977,3713.502949953079
4978,3714.319953918457
4979,3715.1349580287933
4980,3715.9599618911743
4981,3716.779965877533
4982,3717.603969812393
4983,3718.4289739131927
4984,3719.252977848053
4985,3720.06498169899
4986,3720.8699855804443
4987,3721.657989501953
4988,3722.4319932460785
4989,3723.1969969272614
4990,3723.9590005874634
4991,3724.7310042381287
4992,3725.5030081272125
4993,3726.2810118198395
4994,3727.054015636444
4995,3727.8310194015503
4996,3728.5980229377747
4997,3729.37402677536
4998,3730.149030447006
4999,3730.940034389496
5000,3731.733038187027
5001,3732.5230419635773
5002,3733.311045885086
5003,3734.105049610138
5004,3734.8940534591675
5005,3735.6900572776794
5006,3736.48406124115
5007,3737.2885649204254
5008,3738.0930688381195
5009,3738.8760726451874
5010,3739.675576686859
5011,3740.4750804901123
5012,3741.2500841617584
5013,3742.0130879879
5014,3742.775091648102
5015,3743.5350952148438
5016,3744.3000988960266
5017,3745.0851027965546
5018,3745.867106437683
5019,3746.6481103897095
5020,3747.4341139793396
5021,3748.22611784935
5022,3749.0231218338013
5023,3749.8371257781982
5024,3750.650129556656
5025,3751.458133459091
5026,3752.277137517929
5027,3753.0871415138245
5028,3753.8931453227997
5029,3754.686149120331
5030,3755.4831528663635
5031,3756.2911570072174
5032,3757.093160867691
5033,3757.8811645507812
5034,3758.6761684417725
5035,3759.468172311783
5036,3760.256175994873
5037,3761.0461797714233
5038,3761.8281836509705
5039,3762.6131875514984
5040,3763.400191307068
5041,3764.1831951141357
5042,3764.971198797226
5043,3765.7612025737762
5044,3766.5482065677643
5045,3767.340210199356
5046,3768.1452140808105
5047,3768.942218065262
5048,3769.7312219142914
5049,3770.5292258262634
5050,3771.328229665756
5051,3772.127233505249
5052,3772.9282371997833
5053,3773.729241132736
5054,3774.5262451171875
5055,3775.3142488002777
5056,3776.101252555847
5057,3776.8832564353943
5058,3777.6652603149414
5059,3778.4432640075684
5060,3779.2232677936554
5061,3780.0002715587616
5062,3780.7812752723694
5063,3781.551279067993
5064,3782.3512828350067
5065,3783.1602866649628
5066,3783.9672906398773
5067,3784.7642946243286
5068,3785.565298318863
5069,3786.3593022823334
5070,3787.1473059654236
5071,3787.9453098773956
5072,3788.745313644409
5073,3789.553317785263
5074,3790.3693215847015
5075,3791.1783254146576
5076,3791.977329492569
5077,3792.784333229065
5078,3793.5783371925354
5079,3794.3683409690857
5080,3795.143344640732
5081,3795.917348384857
5082,3796.68635225296
5083,3797.4563558101654
5084,3798.2153594493866
5085,3798.9643630981445
5086,3799.70436668396
5087,3800.442370414734
5088,3801.18337392807
5089,3801.930377483368
5090,3802.6863811016083
5091,3803.446384906769
5092,3804.2073884010315
5093,3804.975392103195
5094,3805.75039601326
5095,3806.523399591446
5096,3807.3044035434723
5097,3808.0974073410034
5098,3808.886411190033
5099,3809.6764149665833
5100,3810.4744188785553
5101,3811.273422718048
5102,3812.0744264125824
5103,3812.880430459976
5104,3813.6784343719482
5105,3814.4824380874634
5106,3815.281441926956
5107,3816.0834460258484
5108,3816.8844497203827
5109,3817.678453683853
5110,3818.487457513809
5111,3819.286461353302
5112,3820.092465400696
5113,3820.9054691791534
5114,3821.7064731121063
5115,3822.5014770030975
5116,3823.293480873108
5117,3824.0784845352173
5118,3824.8604884147644
5119,3825.6364920139313
5120,3826.407495737076
5121,3827.1784994602203
5122,3827.9475033283234
5123,3828.7095069885254
5124,3829.4685106277466
5125,3830.226514339447
5126,3830.985517978668
5127,3831.7365214824677
5128,3832.4825251102448
5129,3833.2245287895203
5130,3833.972532272339
5131,3834.73553609848
5132,3835.500539779663
5133,3836.2925436496735
5134,3837.0965473651886
5135,3837.9025514125824
5136,3838.718555212021
5137,3839.5425593852997
5138,3840.3625633716583
5139,3841.1715672016144
5140,3841.988571166992
5141,3842.8075749874115
5142,3843.632579088211
5143,3844.457582950592
5144,3845.2835869789124
5145,3846.1045911312103
5146,3846.9215948581696
5147,3847.7375988960266
5148,3848.561602830887
5149,3849.3866069316864
5150,3850.2156109809875
5151,3851.0276148319244
5152,3851.8446187973022
5153,3852.6656227111816
5154,3853.472626686096
5155,3854.2806305885315
5156,3855.077634334564
5157,3855.8746383190155
