,ECG_peaks
0,0.0
1,0.8079960346221924
2,1.6379919052124023
3,2.476987838745117
4,3.2839837074279785
5,4.093979835510254
6,4.912975788116455
7,5.789971351623535
8,6.684967041015625
9,7.582962512969971
10,8.474958181381226
11,9.352953672409058
12,10.24394941329956
13,11.134944915771484
14,12.043940544128418
15,12.942935943603516
16,13.813931703567505
17,14.671927452087402
18,15.544923067092896
19,16.43091869354248
20,17.30291438102722
21,18.19091010093689
22,19.077905654907227
23,19.946901321411133
24,20.823897123336792
25,21.709892749786377
26,22.60588812828064
27,23.487883806228638
28,24.356879472732544
29,25.23287534713745
30,26.123870849609375
31,27.02086639404297
32,27.925861835479736
33,28.825857400894165
34,29.718852996826172
35,30.584848880767822
36,31.45484447479248
37,32.333840131759644
38,33.22183585166931
39,34.11683130264282
40,35.000826835632324
41,35.889822483062744
42,36.778818130493164
43,37.66481375694275
44,38.515809535980225
45,39.37380528450012
46,40.223801136016846
47,41.07379698753357
48,41.9107928276062
49,42.75178861618042
50,43.59278440475464
51,44.45278024673462
52,45.32477593421936
53,46.17077159881592
54,47.04876732826233
55,47.934762954711914
56,48.82775855064392
57,49.69875431060791
58,50.58774995803833
59,51.49474549293518
60,52.415740728378296
61,53.34373617172241
62,54.27373170852661
63,55.16572713851929
64,56.071722745895386
65,56.98071813583374
66,57.87571382522583
67,58.74870944023132
68,59.638705015182495
69,60.550700664520264
70,61.4616961479187
71,62.31469178199768
72,63.12068796157837
73,63.91068387031555
74,64.68868017196655
75,65.31167697906494
76,66.17467284202576
77,66.89166927337646
78,67.59666585922241
79,68.29066228866577
80,68.9736590385437
81,69.6406557559967
82,70.30365228652954
83,70.95864915847778
84,71.60464596748352
85,72.25064277648926
86,72.88563966751099
87,73.5266363620758
88,74.17763328552246
89,74.82463002204895
90,75.46562695503235
91,76.098623752594
92,76.72262072563171
93,77.34961748123169
94,77.96761441230774
95,78.5816113948822
96,79.20160841941833
97,79.82360529899597
98,80.4496021270752
99,81.07959914207458
100,81.72259593009949
101,82.36959266662598
102,83.0415894985199
103,83.84158539772034
104,84.67458128929138
105,85.4655773639679
106,86.26157355308533
107,87.0405695438385
108,87.7945659160614
109,88.52756214141846
110,89.2325587272644
111,89.91955542564392
112,90.61255192756653
113,91.28154873847961
114,91.99854516983032
115,92.68954157829285
116,93.39553809165955
117,94.109534740448
118,94.79853129386902
119,95.4825279712677
120,96.15952444076538
121,96.82852125167847
122,97.49551796913147
123,98.16151452064514
124,98.82951140403748
125,99.49650812149048
126,100.1615047454834
127,100.82950139045715
128,101.4954981803894
129,102.16749477386475
130,102.83849143981934
131,103.52348804473877
132,104.20248484611511
133,104.89248132705688
134,105.57747793197632
135,106.261474609375
136,106.94147109985352
137,107.6234679222107
138,108.30646443367004
139,108.99246096611023
140,109.678457736969
141,110.37045431137085
142,111.08045077323914
143,111.77344727516174
144,112.45544385910034
145,113.11444067955017
146,113.7904372215271
147,114.46443390846252
148,115.14243054389954
149,115.84042716026306
150,116.54242372512817
151,117.25342011451721
152,117.96941661834717
153,118.67641305923462
154,119.38340973854065
155,120.09740614891052
156,120.81240248680115
157,121.53139901161194
158,122.2473955154419
159,122.94239211082458
160,123.63938856124878
161,124.31438517570496
162,124.97938203811646
163,125.6383786201477
164,126.29837536811829
165,126.95737218856812
166,127.63036894798279
167,128.31636548042297
168,129.00236201286316
169,129.71435856819153
170,130.46235489845276
171,131.210351228714
172,131.96034741401672
173,132.70234370231628
174,133.41934037208557
175,134.18933653831482
176,134.94133281707764
177,135.73232889175415
178,136.58832454681396
179,137.39332056045532
180,138.2053165435791
181,139.05531239509583
182,139.93630814552307
183,140.79430389404297
184,141.62929964065552
185,142.48329544067383
186,143.39129090309143
187,144.39328598976135
188,145.32128143310547
189,146.24027681350708
190,147.1832721233368
191,148.1152675151825
192,149.06826281547546
193,150.42625617980957
194,151.66624999046326
195,152.54024577140808
196,153.409241437912
197,154.27023720741272
198,155.16823267936707
199,156.05622839927673
200,156.98022365570068
201,157.92221903800964
202,158.81821465492249
203,159.73421001434326
204,160.65520548820496
205,161.61720085144043
206,162.55419611930847
207,163.49419164657593
208,164.46118664741516
209,165.44718194007874
210,166.4301769733429
211,167.42917203903198
212,168.42616724967957
213,169.3931622505188
214,170.31615781784058
215,171.2571530342102
216,172.22914838790894
217,173.1841435432434
218,174.13513898849487
219,175.10113406181335
220,176.082129240036
221,177.0551245212555
222,178.0021197795868
223,178.93111515045166
224,179.88311052322388
225,180.82810592651367
226,181.7951009273529
227,182.72109651565552
228,183.65609192848206
229,184.61108708381653
230,185.53308248519897
231,186.47107791900635
232,187.39607334136963
233,188.32406878471375
234,189.2370641231537
235,190.1980595588684
236,191.18005466461182
237,192.1680498123169
238,193.14304494857788
239,194.08104038238525
240,195.00203561782837
241,195.90703129768372
242,196.82902669906616
243,197.7270221710205
244,198.6870174407959
245,199.65001273155212
246,200.6250078678131
247,201.52800345420837
248,202.4539988040924
249,203.37599420547485
250,204.30798959732056
251,205.25898504257202
252,206.21998023986816
253,207.18797540664673
254,208.12097096443176
255,209.07496619224548
256,210.02396154403687
257,210.9869565963745
258,211.94395184516907
259,212.9269471168518
260,213.89694237709045
261,214.86293745040894
262,215.84293270111084
263,216.81792783737183
264,217.80692291259766
265,218.7399182319641
266,219.67791366577148
267,220.63690900802612
268,221.60890412330627
269,222.59389925003052
270,223.54189467430115
271,224.5098898410797
272,225.41788530349731
273,226.34888076782227
274,227.27687621116638
275,228.17287158966064
276,229.08286714553833
277,229.99886274337769
278,230.90785813331604
279,231.8108537197113
280,232.70884919166565
281,233.62784481048584
282,234.52984023094177
283,235.4428358078003
284,236.3318314552307
285,237.2178270816803
286,238.10382270812988
287,238.9708182811737
288,239.83481407165527
289,240.71380972862244
290,241.61780524253845
291,242.5398006439209
292,243.4627959728241
293,244.34879159927368
294,245.24378728866577
295,246.12778282165527
296,246.99577856063843
297,247.86577439308167
298,248.72077012062073
299,249.55276608467102
300,250.39676189422607
301,251.24375772476196
302,252.08475351333618
303,252.90474939346313
304,253.729745388031
305,254.5527412891388
306,255.37273716926575
307,256.1927330493927
308,257.002729177475
309,257.7877252101898
310,258.5717213153839
311,259.35071754455566
312,260.13871359825134
313,260.9367096424103
314,261.7037057876587
315,262.4667022228241
316,263.2316982746124
317,263.9936945438385
318,264.7586908340454
319,265.533686876297
320,266.3396830558777
321,267.18167877197266
322,268.0426745414734
323,268.9336700439453
324,269.8006658554077
325,270.6956613063812
326,271.5686571598053
327,272.44765281677246
328,273.3156485557556
329,274.17164421081543
330,275.0376398563385
331,275.90963554382324
332,276.7736313343048
333,277.652626991272
334,278.53862261772156
335,279.438618183136
336,280.3386137485504
337,281.23060941696167
338,282.12260484695435
339,283.03060030937195
340,283.94959592819214
341,284.8755912780762
342,285.79658675193787
343,286.7155821323395
344,287.6235775947571
345,288.55457305908203
346,289.49756836891174
347,290.4415638446808
348,291.3585591316223
349,292.2885546684265
350,293.2075500488281
351,294.08154582977295
352,294.93454146385193
353,295.8355371952057
354,296.71653270721436
355,297.6305282115936
356,298.5405237674713
357,299.42351937294006
358,300.32851481437683
359,301.2245104312897
360,302.1055061817169
361,302.9755017757416
362,303.8554973602295
363,304.7394931316376
364,305.63848853111267
365,306.54448413848877
366,307.4274797439575
367,308.3044755458832
368,309.1884710788727
369,310.0904664993286
370,311.02146196365356
371,311.93545746803284
372,312.8464529514313
373,313.7554485797882
374,314.67044401168823
375,315.5444395542145
376,316.4384353160858
377,317.3414306640625
378,318.2584261894226
379,319.14142179489136
380,320.04941725730896
381,320.96141290664673
382,321.8794083595276
383,322.79740381240845
384,323.6933994293213
385,324.6013948917389
386,325.51739025115967
387,326.4003858566284
388,327.28938150405884
389,328.1963770389557
390,329.10337257385254
391,330.025367975235
392,330.9143636226654
393,331.7943592071533
394,332.68835496902466
395,333.59835028648376
396,334.48434591293335
397,335.3933415412903
398,336.3053369522095
399,337.18933272361755
400,338.0873281955719
401,338.9993236064911
402,339.90231919288635
403,340.81231474876404
404,341.7263102531433
405,342.6223056316376
406,343.5073013305664
407,344.38629698753357
408,345.2822926044464
409,346.1882882118225
410,347.06628370285034
411,347.9842791557312
412,348.9052746295929
413,349.8052701950073
414,350.7212657928467
415,351.66126108169556
416,352.6072564125061
417,353.5002520084381
418,354.3812475204468
419,355.2642431259155
420,356.1432387828827
421,356.98123478889465
422,357.8552303314209
423,358.7442259788513
424,359.665221452713
425,360.5792169570923
426,361.49521231651306
427,362.4222078323364
428,363.35920310020447
429,364.2591986656189
430,365.15119433403015
431,366.05718994140625
432,366.9551854133606
433,367.83418107032776
434,368.7451765537262
435,369.6811718940735
436,370.63416719436646
437,371.5991623401642
438,372.57015776634216
439,373.5381529331207
440,374.42714858055115
441,375.35014390945435
442,376.26913928985596
443,377.19013476371765
444,378.1401300430298
445,379.08912539482117
446,380.04912066459656
447,380.98911595344543
448,381.8991115093231
449,382.8351068496704
450,383.7631022930145
451,384.7340974807739
452,385.68809270858765
453,386.64408802986145
454,387.5830833911896
455,388.5260787010193
456,389.4620740413666
457,390.3710696697235
458,391.3090648651123
459,392.25106024742126
460,393.19805574417114
461,394.14105105400085
462,395.0760464668274
463,395.9790418148041
464,396.90403723716736
465,397.84203267097473
466,398.77702808380127
467,399.69802355766296
468,400.58201909065247
469,401.47701478004456
470,402.3920102119446
471,403.3150055408478
472,404.22200107574463
473,405.1289966106415
474,406.0259921550751
475,406.8799879550934
476,407.7099838256836
477,408.5139799118042
478,409.3629755973816
479,410.22897148132324
480,411.11996698379517
481,412.00796270370483
482,412.8849582672119
483,413.7519540786743
484,414.61494970321655
485,415.4609456062317
486,416.31594133377075
487,417.17793703079224
488,418.0549328327179
489,418.931928396225
490,419.8229238986969
491,420.69491958618164
492,421.5569155216217
493,422.4469110965729
494,423.345906496048
495,424.26390194892883
496,425.1858973503113
497,426.09289288520813
498,426.9848885536194
499,427.87488412857056
500,428.7708797454834
501,429.656875371933
502,430.5258710384369
503,431.40286660194397
504,432.2968623638153
505,433.19485783576965
506,434.11785340309143
507,435.0448486804962
508,435.9348442554474
509,436.8258399963379
510,437.7318353652954
511,438.6588308811188
512,439.59682631492615
513,440.53082156181335
514,441.4528169631958
515,442.3348126411438
516,443.2238082885742
517,444.1078038215637
518,444.9987995624542
519,445.90979504585266
520,446.8227903842926
521,447.73478603363037
522,448.63578152656555
523,449.524777173996
524,450.42577266693115
525,451.33576822280884
526,452.25876355171204
527,453.15575909614563
528,454.0757546424866
529,455.01574993133545
530,455.94574546813965
531,456.8417408466339
532,457.7497365474701
533,458.6647319793701
534,459.58672738075256
535,460.5147228240967
536,461.4167182445526
537,462.30871391296387
538,463.2007095813751
539,464.0927050113678
540,464.98070073127747
541,465.8436963558197
542,466.69869208335876
543,467.5666878223419
544,468.44768357276917
545,469.3586790561676
546,470.2866744995117
547,471.2156698703766
548,472.11166548728943
549,473.008661031723
550,473.91965651512146
551,474.8306519985199
552,475.7296476364136
553,476.6056432723999
554,477.47963881492615
555,478.3586344718933
556,479.2446300983429
557,480.12762570381165
558,481.00962138175964
559,481.907616853714
560,482.8076124191284
561,483.70560812950134
562,484.6016037464142
563,485.4835991859436
564,486.37359499931335
565,487.26159048080444
566,488.1465861797333
567,489.007581949234
568,489.86857771873474
569,490.72657346725464
570,491.61956882476807
571,492.528564453125
572,493.42056012153625
573,494.31555557250977
574,495.2245512008667
575,496.1405465602875
576,497.0495421886444
577,497.9505376815796
578,498.82453322410583
579,499.66352915763855
580,500.4835250377655
581,501.31452107429504
582,502.18551659584045
583,503.0815122127533
584,503.9795079231262
585,504.8435034751892
586,505.70049929618835
587,506.5464951992035
588,507.3854908943176
589,508.2234869003296
590,509.06548261642456
591,509.9224784374237
592,510.7824742794037
593,511.65246987342834
594,512.5364654064178
595,513.4314610958099
596,514.2954568862915
597,515.1884524822235
598,516.0494482517242
599,516.921443939209
600,517.7574396133423
601,518.5874354839325
602,519.3954315185547
603,520.1934275627136
604,520.976423740387
605,521.7594199180603
606,522.5344159603119
607,523.3064122200012
608,524.0714085102081
609,524.8084049224854
610,525.5494010448456
611,526.3323972225189
612,527.116393327713
613,527.8993895053864
614,528.6913855075836
615,529.4693818092346
616,530.2403779029846
617,531.0283739566803
618,531.7863702774048
619,532.5373666286469
620,533.294362783432
621,534.0773589611053
622,534.8683550357819
623,535.6483511924744
624,536.392347574234
625,537.1333439350128
626,537.8463404178619
627,538.5583367347717
628,539.246333360672
629,539.9423298835754
630,540.6203265190125
631,541.318323135376
632,541.9973199367523
633,542.6883163452148
634,543.3883130550385
635,544.1043093204498
636,544.8313057422638
637,545.5603022575378
638,546.2882986068726
639,547.0092949867249
640,547.7252914905548
641,548.4422879219055
642,549.1672842502594
643,549.889280796051
644,550.6222772598267
645,551.356273651123
646,552.0882699489594
647,552.8112664222717
648,553.5392627716064
649,554.2762591838837
650,555.0132553577423
651,555.7472517490387
652,556.4852480888367
653,557.2162444591522
654,557.9522409439087
655,558.6892373561859
656,559.4262335300446
657,560.1742298603058
658,560.9262261390686
659,561.6972224712372
660,562.4572186470032
661,563.2082149982452
662,563.9482111930847
663,564.6992075443268
664,565.4542038440704
665,566.2501997947693
666,567.0441958904266
667,567.8401920795441
668,568.6221880912781
669,569.4061841964722
670,570.1841804981232
671,570.9551765918732
672,571.7211728096008
673,572.4841690063477
674,573.2321653366089
675,573.9771616458893
676,574.7351579666138
677,575.5341539382935
678,576.3521499633789
679,577.2171456813812
680,578.073141336441
681,578.8871374130249
682,579.6781334877014
683,580.4581296443939
684,581.2451257705688
685,582.0191218852997
686,582.811117887497
687,583.5861141681671
688,584.3981101512909
689,585.2171061038971
690,586.0321021080017
691,586.813098192215
692,587.586094379425
693,588.3610906600952
694,589.1310868263245
695,589.9100828170776
696,590.6700792312622
697,591.4620752334595
698,592.2410714626312
699,593.0290675163269
700,593.8100636005402
701,594.595059633255
702,595.3820557594299
703,596.1830518245697
704,596.9760479927063
705,597.7650439739227
706,598.5400402545929
707,599.3100364208221
708,600.0900325775146
709,600.9000284671783
710,601.717024564743
711,602.5690202713013
712,603.4140160083771
713,604.2760119438171
714,605.1620075702667
715,606.1020028591156
716,607.0469982624054
717,607.965993642807
718,608.8839890956879
719,609.8199844360352
720,610.7489798069
721,611.7119750976562
722,612.676970243454
723,613.6129655838013
724,614.5599610805511
725,615.4989564418793
726,616.4429516792297
727,617.367947101593
728,618.3039424419403
729,619.2589378356934
730,620.2409329414368
731,621.1739282608032
732,622.1199235916138
733,623.0749189853668
734,624.0289142131805
735,624.9469096660614
736,625.9189047813416
737,626.8928999900818
738,627.8688952922821
739,628.8278903961182
740,629.772885799408
741,630.6928811073303
742,631.6398766040802
743,632.6048717498779
744,633.5378670692444
745,634.474862575531
746,635.4398577213287
747,636.415853023529
748,637.4148480892181
749,638.403843164444
750,639.3448383808136
751,640.3328335285187
752,641.3458285331726
753,642.3128237724304
754,643.2958188056946
755,644.2698140144348
756,645.2178094387054
757,646.1448047161102
758,647.1038000583649
759,648.0887951850891
760,649.0647902488708
761,650.0247855186462
762,650.996780872345
763,651.9927759170532
764,653.0077707767487
765,654.027765750885
766,655.0177609920502
767,656.0107560157776
768,657.0197510719299
769,658.0317459106445
770,659.0467410087585
771,660.0447361469269
772,661.0587310791016
773,662.018726348877
774,663.02672123909
775,664.0237164497375
776,665.0137114524841
777,665.9957065582275
778,666.9637019634247
779,667.9396970272064
780,668.9276921749115
781,669.9026873111725
782,670.8786826133728
783,671.8686776161194
784,672.8226728439331
785,673.7566683292389
786,674.7236635684967
787,675.714658498764
788,676.7306535243988
789,677.7466485500336
790,678.761643409729
791,679.7696385383606
792,680.7796335220337
793,681.7696285247803
794,682.7096240520477
795,683.7126190662384
796,684.6976141929626
797,685.657609462738
798,686.5846047401428
799,687.5126001834869
800,688.4285957813263
801,689.3705911636353
802,690.284586429596
803,691.2085819244385
804,692.176577091217
805,693.189572095871
806,694.1595673561096
807,695.1135625839233
808,696.0865578651428
809,697.0465531349182
810,698.0095484256744
811,698.9695436954498
812,699.9285387992859
813,701.3545317649841
814,702.6235256195068
815,703.5275211334229
816,704.4145166873932
817,705.3515119552612
818,706.3035073280334
819,707.2525026798248
820,708.2074978351593
821,709.084493637085
822,709.9524893760681
823,710.8494849205017
824,711.763480424881
825,712.6524758338928
826,713.5754714012146
827,714.5284667015076
828,715.4984619617462
829,716.4654569625854
830,717.4424521923065
831,718.3684475421906
832,719.2924430370331
833,720.2254383563995
834,721.165433883667
835,722.1044292449951
836,723.0354244709015
837,723.9544200897217
838,724.8824155330658
839,725.8394107818604
840,726.8034060001373
841,727.7344012260437
842,728.6973965167999
843,729.6713917255402
844,730.6373870372772
845,731.5943822860718
846,732.5693774223328
847,733.5393726825714
848,734.5243678092957
849,735.5053629875183
850,736.459358215332
851,737.4543533325195
852,738.4533483982086
853,739.4413435459137
854,740.3983387947083
855,741.3553340435028
856,742.3043293952942
857,743.253324508667
858,744.2023198604584
859,745.1323153972626
860,746.0973105430603
861,747.0743057727814
862,748.0413010120392
863,749.0042960643768
864,749.9622914791107
865,750.9212865829468
866,751.8702819347382
867,752.8172771930695
868,753.7562725543976
869,754.7152678966522
870,755.6862630844116
871,756.6662583351135
872,757.6242535114288
873,758.5942487716675
874,759.5802438259125
875,760.5852389335632
876,761.5732340812683
877,762.5482292175293
878,763.5092244148254
879,764.4522197246552
880,765.4162149429321
881,766.3992102146149
882,767.3552052974701
883,768.3152005672455
884,769.2931957244873
885,770.2641909122467
886,771.2231862545013
887,772.1811814308167
888,773.1121768951416
889,774.0151724815369
890,774.932168006897
891,775.8821632862091
892,776.8491585254669
893,777.8561534881592
894,778.8191487789154
895,779.754144191742
896,780.7111394405365
897,781.6761345863342
898,782.6201298236847
899,783.5531253814697
900,784.4821207523346
901,785.4221160411835
902,786.3861112594604
903,787.3601064682007
904,788.3341016769409
905,789.3010969161987
906,790.2800920009613
907,791.25208735466
908,792.2110824584961
909,793.1440777778625
910,794.1030731201172
911,795.0610682964325
912,796.0130636692047
913,796.9580590724945
914,797.9000544548035
915,798.8540496826172
916,799.810045003891
917,800.7350404262543
918,801.6450357437134
919,802.571031332016
920,803.5090265274048
921,804.4640219211578
922,805.4370172023773
923,806.3700125217438
924,807.3160078525543
925,808.2660031318665
926,809.2279982566833
927,810.1989934444427
928,811.1639888286591
929,812.1129841804504
930,813.0559794902802
931,813.9969747066498
932,814.9419701099396
933,815.9159653186798
934,816.8829605579376
935,817.8399558067322
936,818.7739510536194
937,819.7299463748932
938,820.6909415721893
939,821.6429369449615
940,822.5709323883057
941,823.4989278316498
942,824.4389231204987
943,825.396918296814
944,826.3669135570526
945,827.3299088478088
946,828.257904291153
947,829.2148995399475
948,830.1928946971893
949,831.151890039444
950,832.0798852443695
951,833.0268807411194
952,833.9768760204315
953,834.920871257782
954,835.8368668556213
955,836.7818620204926
956,837.7538573741913
957,838.7328524589539
958,839.7118475437164
959,840.6638429164886
960,841.6408381462097
961,842.6138331890106
962,843.5888283252716
963,844.5498237609863
964,845.4728190898895
965,846.4068145751953
966,847.3288099765778
967,848.28080534935
968,849.239800453186
969,850.1807959079742
970,851.1247911453247
971,852.0887863636017
972,853.0227818489075
973,853.8917775154114
974,854.7177734375
975,855.550769329071
976,856.392765045166
977,857.2427608966827
978,858.0977566242218
979,858.9777524471283
980,859.8737478256226
981,860.8047432899475
982,861.7457387447357
983,862.6917340755463
984,863.6117293834686
985,864.5197248458862
986,865.4567203521729
987,866.4017155170441
988,867.3637108802795
989,868.3307061195374
990,869.2867014408112
991,870.1996967792511
992,871.119692325592
993,872.0736875534058
994,873.0296828746796
995,873.9806780815125
996,874.904673576355
997,875.8436689376831
998,876.8246641159058
999,877.8226592540741
1000,878.8366541862488
1001,879.7826495170593
1002,880.7296447753906
1003,881.6686401367188
1004,882.6136355400085
1005,883.5016310214996
1006,884.379626750946
1007,885.292622089386
1008,886.2276175022125
1009,887.1806128025055
1010,888.1546080112457
1011,889.1136033535004
1012,890.0815985202789
1013,891.0215938091278
1014,891.9305894374847
1015,892.8765847682953
1016,893.8275799751282
1017,894.794575214386
1018,895.771570444107
1019,896.7285656929016
1020,897.6705610752106
1021,898.6335561275482
1022,899.6145513057709
1023,900.5655467510223
1024,901.4995419979095
1025,902.3915376663208
1026,903.2655334472656
1027,904.1725287437439
1028,905.0845243930817
1029,906.0055198669434
1030,906.9445152282715
1031,907.9175102710724
1032,908.8755056858063
1033,909.807501077652
1034,910.7404963970184
1035,911.7044916152954
1036,912.7034866809845
1037,913.7174816131592
1038,914.7314765453339
1039,915.6984717845917
1040,916.6624670028687
1041,917.6544620990753
1042,918.6584572792053
1043,919.6224524974823
1044,920.5944476127625
1045,921.5814428329468
1046,922.5394380092621
1047,923.4874334335327
1048,924.4624285697937
1049,925.4544236660004
1050,926.4044189453125
1051,927.3824141025543
1052,928.3874092102051
1053,929.3944041728973
1054,930.3723993301392
1055,931.3513944149017
1056,932.3223896026611
1057,933.2423851490021
1058,934.1793804168701
1059,935.1413757801056
1060,936.1213707923889
1061,937.0973660945892
1062,938.0783612728119
1063,939.0223565101624
1064,939.9563519954681
1065,940.9023473262787
1066,941.8803424835205
1067,942.8713374137878
1068,943.8623325824738
1069,944.8333277702332
1070,945.7793231010437
1071,946.726318359375
1072,947.6873135566711
1073,948.656308889389
1074,949.6223042011261
1075,950.5872993469238
1076,951.5122947692871
1077,952.4442901611328
1078,953.407285451889
1079,954.3972804546356
1080,955.3772757053375
1081,956.3262710571289
1082,957.2452664375305
1083,958.1742618083954
1084,959.0912573337555
1085,960.0362524986267
1086,960.9762480258942
1087,961.8782434463501
1088,962.7672390937805
1089,963.6822345256805
1090,964.6202299594879
1091,965.5822250843048
1092,966.5442204475403
1093,967.4832158088684
1094,968.4222111701965
1095,969.3622064590454
1096,970.297201871872
1097,971.2211973667145
1098,972.1301927566528
1099,973.0121884346008
1100,973.9001841545105
1101,974.7861795425415
1102,975.6991751194
1103,976.5941708087921
1104,977.4801664352417
1105,978.3791618347168
1106,979.2881574630737
1107,980.2141528129578
1108,981.1431481838226
1109,982.0661437511444
1110,982.99613904953
1111,983.9231345653534
1112,984.8791296482086
1113,985.8341250419617
1114,986.770120382309
1115,987.6761159896851
1116,988.5951113700867
1117,989.5261068344116
1118,990.4731020927429
1119,991.4550971984863
1120,992.4180924892426
1121,993.3480877876282
1122,994.2910830974579
1123,995.2330784797668
1124,996.1870739459991
1125,997.1430690288544
1126,998.1010644435883
1127,999.0260598659515
1128,999.9600551128387
1129,1000.9080505371094
1130,1001.8720457553864
1131,1002.8520407676697
1132,1003.8380360603333
1133,1004.7840313911438
1134,1005.7160267829895
1135,1006.6540219783783
1136,1007.6050174236298
1137,1008.5780124664307
1138,1009.5610077381134
1139,1010.5220029354095
1140,1011.4529983997345
1141,1012.3869936466217
1142,1013.3289890289307
1143,1014.275984287262
1144,1015.2399795055389
1145,1016.1979749202728
1146,1017.1189703941345
1147,1018.0199658870697
1148,1018.9309613704681
1149,1019.848956823349
1150,1020.8099520206451
1151,1021.7829473018646
1152,1022.7589423656464
1153,1023.6919379234314
1154,1024.6169333457947
1155,1025.561928510666
1156,1026.5309238433838
1157,1027.499918937683
1158,1028.4609141349792
1159,1029.3719096183777
1160,1030.2819051742554
1161,1031.2019007205963
1162,1032.128895998001
1163,1033.075891494751
1164,1034.0168867111206
1165,1034.9458820819855
1166,1035.90487742424
1167,1036.8698725700378
1168,1037.8508677482605
1169,1038.8258628845215
1170,1039.7938582897186
1171,1040.7228536605835
1172,1041.6758489608765
1173,1042.6268441677094
1174,1043.5778393745422
1175,1044.538834810257
1176,1045.4788300991058
1177,1046.390825510025
1178,1047.3098211288452
1179,1048.2578163146973
1180,1049.216811656952
1181,1050.1588070392609
1182,1051.0668025016785
1183,1052.0047976970673
1184,1052.9457931518555
1185,1053.9167883396149
1186,1054.8987834453583
1187,1055.8607788085938
1188,1056.8147740364075
1189,1057.7787692546844
1190,1058.7567644119263
1191,1059.7207596302032
1192,1060.674754858017
1193,1061.5797505378723
1194,1062.4937460422516
1195,1063.4237413406372
1196,1064.3707365989685
1197,1065.3317317962646
1198,1066.260727405548
1199,1067.1747229099274
1200,1068.0967183113098
1201,1069.043713569641
1202,1069.994708776474
1203,1070.9337041378021
1204,1071.851699590683
1205,1072.782695055008
1206,1073.7236905097961
1207,1074.6596858501434
1208,1075.576681137085
1209,1076.4546768665314
1210,1077.3256726264954
1211,1078.1806683540344
1212,1079.031664133072
1213,1079.855660200119
1214,1080.6496560573578
1215,1081.4226522445679
1216,1082.1966485977173
1217,1082.9966444969177
1218,1083.8636403083801
1219,1084.781635761261
1220,1085.7156310081482
1221,1086.6216266155243
1222,1087.5226221084595
1223,1088.4346177577972
1224,1089.3566131591797
1225,1090.2806084156036
1226,1091.1916041374207
1227,1092.0715997219086
1228,1092.9645953178406
1229,1093.8835906982422
1230,1094.8165860176086
1231,1095.7665812969208
1232,1096.7225766181946
1233,1097.6565721035004
1234,1098.5675675868988
1235,1099.4975628852844
1236,1100.4335582256317
1237,1101.4125535488129
1238,1102.4085485935211
1239,1103.3935437202454
1240,1104.3405389785767
1241,1105.3055341243744
1242,1106.2995293140411
1243,1107.2945244312286
1244,1108.2805194854736
1245,1109.2345147132874
1246,1110.1655101776123
1247,1111.108505487442
1248,1112.0655007362366
1249,1113.0184960365295
1250,1113.9734914302826
1251,1114.9024868011475
1252,1115.8114821910858
1253,1116.7434775829315
1254,1117.7094728946686
1255,1118.7084679603577
1256,1119.6994631290436
1257,1120.643458366394
1258,1121.5824537277222
1259,1122.5314490795135
1260,1123.4904444217682
1261,1124.4594395160675
1262,1125.4064347743988
1263,1126.3104302883148
1264,1127.2214257717133
1265,1128.144421339035
1266,1129.1124165058136
1267,1130.1114115715027
1268,1131.1214065551758
1269,1132.1024017333984
1270,1133.0543971061707
1271,1134.02539229393
1272,1134.9913873672485
1273,1135.9583826065063
1274,1136.9193778038025
1275,1137.8473732471466
1276,1138.7403688430786
1277,1139.6593644618988
1278,1140.60635972023
1279,1141.5663549900055
1280,1142.5263502597809
1281,1143.4773454666138
1282,1144.4303407669067
1283,1145.3943359851837
1284,1146.3763310909271
1285,1147.356326341629
1286,1148.3213214874268
1287,1149.2813167572021
1288,1150.2313120365143
1289,1151.196307182312
1290,1152.1813025474548
1291,1153.1442975997925
1292,1154.068293094635
1293,1155.005288362503
1294,1155.958283662796
1295,1156.9312789440155
1296,1157.8782742023468
1297,1158.8332695960999
1298,1159.8002648353577
1299,1160.758260011673
1300,1161.7282552719116
1301,1162.6732504367828
1302,1163.6052458286285
1303,1164.55624127388
1304,1165.5192365646362
1305,1166.497231721878
1306,1167.4602267742157
1307,1168.3992221355438
1308,1169.3422176837921
1309,1170.2812128067017
1310,1171.2432081699371
1311,1172.2172033786774
1312,1173.1671986579895
1313,1174.086194038391
1314,1174.9921896457672
1315,1175.8711853027344
1316,1176.7661807537079
1317,1177.6411764621735
1318,1178.5191721916199
1319,1179.4121677875519
1320,1180.3341631889343
1321,1181.2591586112976
1322,1182.1491541862488
1323,1183.0461497306824
1324,1183.9391453266144
1325,1184.841140985489
1326,1185.7651362419128
1327,1186.6991317272186
1328,1187.6221270561218
1329,1188.5431225299835
1330,1189.47811794281
1331,1190.4321131706238
1332,1191.3671085834503
1333,1192.31010389328
1334,1193.2550992965698
1335,1194.2020945549011
1336,1195.1520898342133
1337,1196.0790853500366
1338,1197.0200808048248
1339,1197.9470760822296
1340,1198.8920714855194
1341,1199.816066980362
1342,1200.7440621852875
1343,1201.690057516098
1344,1202.6490528583527
1345,1203.6100480556488
1346,1204.540043592453
1347,1205.4370391368866
1348,1206.346034526825
1349,1207.2710299491882
1350,1208.2090253829956
1351,1209.1540207862854
1352,1210.0680162906647
1353,1210.9600117206573
1354,1211.85400724411
1355,1212.7530028820038
1356,1213.664998292923
1357,1214.5699939727783
1358,1215.4659895896912
1359,1216.3539850711823
1360,1217.247980594635
1361,1218.1339762210846
1362,1219.0199718475342
1363,1219.9039676189423
1364,1220.7949631214142
1365,1221.7049586772919
1366,1222.621954202652
1367,1223.523949623108
1368,1224.3969452381134
1369,1225.2439410686493
1370,1226.1009368896484
1371,1226.96493268013
1372,1227.8549282550812
1373,1228.7669236660004
1374,1229.663919210434
1375,1230.558914899826
1376,1231.4559104442596
1377,1232.3489060401917
1378,1233.2219016551971
1379,1234.0928974151611
1380,1234.9648931026459
1381,1235.8408887386322
1382,1236.701884508133
1383,1237.5688800811768
1384,1238.4418759346008
1385,1239.3398714065552
1386,1240.2548668384552
1387,1241.177862405777
1388,1242.1028578281403
1389,1243.0278532505035
1390,1243.9288487434387
1391,1244.8148443698883
1392,1245.7058398723602
1393,1246.6318354606628
1394,1247.5588307380676
1395,1248.4868261814117
1396,1249.4018216133118
1397,1250.3198170661926
1398,1251.2488124370575
1399,1252.1708080768585
1400,1253.101803302765
1401,1254.0107989311218
1402,1254.9197943210602
1403,1255.8397898674011
1404,1256.766785144806
1405,1257.7127804756165
1406,1258.660775899887
1407,1259.5957713127136
1408,1260.509766817093
1409,1261.4297621250153
1410,1262.3357577323914
1411,1263.2337532043457
1412,1264.0937490463257
1413,1264.9647448062897
1414,1265.8337404727936
1415,1266.7247359752655
1416,1267.637731552124
1417,1268.54172706604
1418,1269.4697225093842
1419,1270.3817179203033
1420,1271.2857134342194
1421,1272.1677091121674
1422,1273.0847046375275
1423,1274.0186998844147
1424,1274.9526953697205
1425,1275.8306908607483
1426,1276.7306864261627
1427,1277.633682012558
1428,1278.5406775474548
1429,1279.4456729888916
1430,1280.3226687908173
1431,1281.1746644973755
1432,1282.0116603374481
1433,1282.8706562519073
1434,1283.7466518878937
1435,1284.6596472263336
1436,1285.5856428146362
1437,1286.5026381015778
1438,1287.3986337184906
1439,1288.3046293258667
1440,1289.238624572754
1441,1290.195620059967
1442,1291.1636152267456
1443,1292.0906105041504
1444,1293.0616056919098
1445,1294.0446009635925
1446,1295.0075962543488
1447,1295.9735913276672
1448,1296.95458650589
1449,1297.953581571579
1450,1298.9385766983032
1451,1299.9075720310211
1452,1300.8845670223236
1453,1301.857562303543
1454,1302.8075575828552
1455,1303.7385530471802
1456,1304.692548274994
1457,1305.678543329239
1458,1306.682538509369
1459,1307.681533575058
1460,1308.6555285453796
1461,1309.6485238075256
1462,1310.6335189342499
1463,1311.5935142040253
1464,1312.5525093078613
1465,1313.5055046081543
1466,1314.4684998989105
1467,1315.4344952106476
1468,1316.3614904880524
1469,1317.309485912323
1470,1318.2774810791016
1471,1319.272476196289
1472,1320.2954711914062
1473,1321.320466041565
1474,1322.3104610443115
1475,1323.3284561634064
1476,1324.3254511356354
1477,1325.279446363449
1478,1326.2454416751862
1479,1327.2304368019104
1480,1328.2534317970276
1481,1329.2744266986847
1482,1330.294421672821
1483,1331.305416584015
1484,1332.249412059784
1485,1333.2004072666168
1486,1334.1644024848938
1487,1335.1693975925446
1488,1336.1833925247192
1489,1337.194387435913
1490,1338.147382736206
1491,1339.1123781204224
1492,1340.0843732357025
1493,1341.0603682994843
1494,1342.021363735199
1495,1342.963359117508
1496,1343.8693544864655
1497,1344.7863500118256
1498,1345.6943454742432
1499,1346.5783410072327
1500,1347.4293370246887
1501,1348.2603328227997
1502,1349.0913286209106
1503,1349.9393246173859
1504,1350.8173201084137
1505,1351.7153158187866
1506,1352.6033113002777
1507,1353.4853069782257
1508,1354.3623025417328
1509,1355.24329829216
1510,1356.098294019699
1511,1356.9352898597717
1512,1357.778285741806
1513,1358.638281583786
1514,1359.4982771873474
1515,1360.3762729167938
1516,1361.2572684288025
1517,1362.1302642822266
1518,1362.981260061264
1519,1363.817255973816
1520,1364.6462516784668
1521,1365.4932475090027
1522,1366.3542432785034
1523,1367.2012391090393
1524,1368.0592348575592
1525,1368.9452304840088
1526,1369.8642258644104
1527,1370.768221616745
1528,1371.678216934204
1529,1372.5842125415802
1530,1373.4502081871033
1531,1374.3032040596008
1532,1375.1561996936798
1533,1376.0331954956055
1534,1376.9101910591125
1535,1377.7951867580414
1536,1378.6561825275421
1537,1379.5181782245636
1538,1380.3871738910675
1539,1381.2631695270538
1540,1382.1481652259827
1541,1383.024160861969
1542,1383.8921566009521
1543,1384.7561523914337
1544,1385.605148077011
1545,1386.4381439685822
1546,1387.2601399421692
1547,1388.0801358222961
1548,1388.9061317443848
1549,1389.7111277580261
1550,1390.4961240291595
1551,1391.3111200332642
1552,1392.1441156864166
1553,1392.9831116199493
1554,1393.8461074829102
1555,1394.7091031074524
1556,1395.5530989170074
1557,1396.382094860077
1558,1397.2200906276703
1559,1398.0660865306854
1560,1398.8730826377869
1561,1399.6830785274506
1562,1400.4920744895935
1563,1401.323070526123
1564,1402.149066209793
1565,1402.9570622444153
1566,1403.807058095932
1567,1404.6590538024902
1568,1405.5520493984222
1569,1406.4360451698303
1570,1407.286041021347
1571,1408.0810370445251
1572,1408.8470332622528
1573,1409.5970294475555
1574,1410.342025756836
1575,1411.0940220355988
1576,1411.84201836586
1577,1412.5880146026611
1578,1413.3440110683441
1579,1414.1030073165894
1580,1414.867003440857
1581,1415.6169996261597
1582,1416.3699960708618
1583,1417.115992307663
1584,1417.866988658905
1585,1418.6059849262238
1586,1419.3459813594818
1587,1420.1069774627686
1588,1420.875973701477
1589,1421.6379699707031
1590,1422.3979661464691
1591,1423.162962436676
1592,1423.9109587669373
1593,1424.6379551887512
1594,1425.3679513931274
1595,1426.1029479503632
1596,1426.8289442062378
1597,1427.578940629959
1598,1428.3339369297028
1599,1429.0919330120087
1600,1429.8469293117523
1601,1430.6029255390167
1602,1431.3579218387604
1603,1432.1099181175232
1604,1432.8479144573212
1605,1433.593910932541
1606,1434.3469071388245
1607,1435.099903345108
1608,1435.8578996658325
1609,1436.6078958511353
1610,1437.3528921604156
1611,1438.0948886871338
1612,1438.8318848609924
1613,1439.586881160736
1614,1440.3398773670197
1615,1441.0918736457825
1616,1441.8398699760437
1617,1442.5828664302826
1618,1443.3288626670837
1619,1444.0798590183258
1620,1444.836855173111
1621,1445.589851617813
1622,1446.3798475265503
1623,1447.1598436832428
1624,1447.9468398094177
1625,1448.7148361206055
1626,1449.4848322868347
1627,1450.2458283901215
1628,1451.0028247833252
1629,1451.7618210315704
1630,1452.5188171863556
1631,1453.2828135490417
1632,1454.050809621811
1633,1454.825805902481
1634,1455.610801935196
1635,1456.4067981243134
1636,1457.178794145584
1637,1457.9807901382446
1638,1458.768786430359
1639,1459.5457825660706
1640,1460.3187787532806
1641,1461.0827748775482
1642,1461.8467710018158
1643,1462.6177673339844
1644,1463.3717634677887
1645,1464.1207599639893
1646,1464.8657562732697
1647,1465.6947519779205
1648,1466.5097479820251
1649,1467.3067440986633
1650,1468.0717403888702
1651,1468.8297364711761
1652,1469.570732831955
1653,1470.3027293682098
1654,1471.0287256240845
1655,1471.76172208786
1656,1472.491718530655
1657,1473.2227149009705
1658,1473.9397113323212
1659,1474.6467077732086
1660,1475.353704214096
1661,1476.069700717926
1662,1476.7886972427368
1663,1477.5156936645508
1664,1478.2486898899078
1665,1479.00168633461
1666,1479.7426826953888
1667,1480.4756789207458
1668,1481.1986753940582
1669,1481.917671918869
1670,1482.6406683921814
1671,1483.3766646385193
1672,1484.1136610507965
1673,1484.8526573181152
1674,1485.591653585434
1675,1486.3286499977112
1676,1487.060646533966
1677,1487.782642841339
1678,1488.4916393756866
1679,1489.1896359920502
1680,1489.8916323184967
1681,1490.6076288223267
1682,1491.3126254081726
1683,1492.0296218395233
1684,1492.7536182403564
1685,1493.4986145496368
1686,1494.257610797882
1687,1495.0156071186066
1688,1495.7646033763885
1689,1496.5195996761322
1690,1497.284595966339
1691,1498.0375921726227
1692,1498.791588306427
1693,1499.5505845546722
1694,1500.32058095932
1695,1501.1595766544342
1696,1502.0025725364685
1697,1502.8345685005188
1698,1503.618564605713
1699,1504.4095606803894
1700,1505.1805567741394
1701,1505.9375531673431
1702,1506.6995494365692
1703,1507.4905455112457
1704,1508.2785415649414
1705,1509.0625376701355
1706,1509.8455338478088
1707,1510.6315298080444
1708,1511.433525800705
1709,1512.2105221748352
1710,1512.9635183811188
1711,1513.7215147018433
1712,1514.4685108661652
1713,1515.2035071849823
1714,1515.9315037727356
1715,1516.6754999160767
1716,1517.4214963912964
1717,1518.169492483139
1718,1518.9164888858795
1719,1519.6714851856232
1720,1520.4174814224243
1721,1521.161477804184
1722,1521.9154741764069
1723,1522.7004702091217
1724,1523.4954662322998
1725,1524.3074622154236
1726,1525.123458147049
1727,1525.9414541721344
1728,1527.1904480457306
1729,1528.3734421730042
1730,1529.1774382591248
1731,1529.958434343338
1732,1530.7164306640625
1733,1531.4634268283844
1734,1532.2334229946136
1735,1533.0374190807343
1736,1533.9014148712158
1737,1534.8144102096558
1738,1535.7264058589935
1739,1536.6074013710022
1740,1537.4673972129822
1741,1538.328392982483
1742,1539.194388628006
1743,1540.0643842220306
1744,1540.9063801765442
1745,1541.756376028061
1746,1542.6103718280792
1747,1543.4793674945831
1748,1544.3433632850647
1749,1545.2253587245941
1750,1546.112354516983
1751,1546.9913501739502
1752,1547.8443458080292
1753,1548.6853415966034
1754,1549.5073375701904
1755,1550.3373334407806
1756,1551.1433296203613
1757,1551.9353256225586
1758,1552.7233216762543
1759,1553.5033178329468
1760,1554.2683141231537
1761,1555.038310289383
1762,1555.820306301117
1763,1556.6053025722504
1764,1557.3882987499237
1765,1558.169294834137
1766,1558.9522910118103
1767,1559.7362871170044
1768,1560.511283159256
1769,1561.2772793769836
1770,1562.0532755851746
1771,1562.8422718048096
1772,1563.6272678375244
1773,1564.4462637901306
1774,1565.2412598133087
1775,1566.0522558689117
1776,1566.8382518291473
1777,1567.598248243332
1778,1568.3362445831299
1779,1569.0612409114838
1780,1569.7922372817993
1781,1570.5382335186005
1782,1571.3022298812866
1783,1572.0672261714935
1784,1572.8262224197388
1785,1573.5812184810638
1786,1574.3332147598267
1787,1575.0902111530304
1788,1575.8422074317932
1789,1576.6082036495209
1790,1577.3911998271942
1791,1578.1641960144043
1792,1578.9431920051575
1793,1579.72318816185
1794,1580.5081844329834
1795,1581.3421802520752
1796,1582.2131760120392
1797,1583.0921716690063
1798,1583.960167169571
1799,1584.8511629104614
1800,1585.7081587314606
1801,1586.5531544685364
1802,1587.3831503391266
1803,1588.2081463336945
1804,1589.032142162323
1805,1589.8861379623413
1806,1590.772133588791
1807,1591.6631290912628
1808,1592.571124792099
1809,1593.5121200084686
1810,1594.415115594864
1811,1595.3111112117767
1812,1596.2021067142487
1813,1597.0901024341583
1814,1597.9700980186462
1815,1598.842093706131
1816,1599.6880893707275
1817,1600.5390853881836
1818,1601.361081123352
1819,1602.1710772514343
1820,1602.9620733261108
1821,1603.7620692253113
1822,1604.5480654239655
1823,1605.3340616226196
1824,1606.1200575828552
1825,1606.8790538311005
1826,1607.6220502853394
1827,1608.3560466766357
1828,1609.093043088913
1829,1609.842039346695
1830,1610.6160354614258
1831,1611.433031320572
1832,1612.3020272254944
1833,1613.2000226974487
1834,1614.0960183143616
1835,1614.9440140724182
1836,1615.769010066986
1837,1616.5790059566498
1838,1617.3690021038055
1839,1618.1569981575012
1840,1618.930994272232
1841,1619.7119903564453
1842,1620.4999866485596
1843,1621.3169825077057
1844,1622.137978553772
1845,1622.976974248886
1846,1623.8219702243805
1847,1624.6689660549164
1848,1625.5109617710114
1849,1626.3219578266144
1850,1627.112953901291
1851,1627.885950088501
1852,1628.6379463672638
1853,1629.3679428100586
1854,1630.1389389038086
1855,1630.918935060501
1856,1631.7429308891296
1857,1632.6009266376495
1858,1633.4559226036072
1859,1634.3109183311462
1860,1635.1899139881134
1861,1636.075909614563
1862,1636.9299054145813
1863,1637.7809011936188
1864,1638.630896806717
1865,1639.4668927192688
1866,1640.320888519287
1867,1641.1868841648102
1868,1642.0918798446655
1869,1642.9848754405975
1870,1643.9128708839417
1871,1644.843866109848
1872,1645.785861492157
1873,1646.6988570690155
1874,1647.6228523254395
1875,1648.548847913742
1876,1649.4578433036804
1877,1650.3618388175964
1878,1651.2618343830109
1879,1652.1828298568726
1880,1653.1108253002167
1881,1654.0158207416534
1882,1654.9228162765503
1883,1655.8018119335175
1884,1656.6538078784943
1885,1657.5038034915924
1886,1658.309799671173
1887,1659.105795621872
1888,1659.8917918205261
1889,1660.6727879047394
1890,1661.4587841033936
1891,1662.2377800941467
1892,1663.0197763442993
1893,1663.8107724189758
1894,1664.6037685871124
1895,1665.416764497757
1896,1666.2547602653503
1897,1667.0797562599182
1898,1667.902752161026
1899,1668.7267479896545
1900,1669.555743932724
1901,1670.3917398452759
1902,1671.226735830307
1903,1672.0557315349579
1904,1672.885727405548
1905,1673.7337234020233
1906,1674.5987191200256
1907,1675.4547147750854
1908,1676.2987105846405
1909,1677.1577064990997
1910,1678.0297021865845
1911,1678.8986978530884
1912,1679.7776935100555
1913,1680.6606891155243
1914,1681.5076849460602
1915,1682.3626806735992
1916,1683.2116763591766
1917,1684.0356724262238
1918,1684.8596682548523
1919,1685.6556644439697
1920,1686.4356606006622
1921,1687.2116565704346
1922,1687.9746530056
1923,1688.7366490364075
1924,1689.5016453266144
1925,1690.2756414413452
1926,1691.0426378250122
1927,1691.8156340122223
1928,1692.5826301574707
1929,1693.3406264781952
1930,1694.0826227664948
1931,1694.8226189613342
1932,1695.5616154670715
1933,1696.3166117668152
1934,1697.0596079826355
1935,1697.8336040973663
1936,1698.615600347519
1937,1699.4125962257385
1938,1700.2035925388336
1939,1700.9935884475708
1940,1701.7845845222473
1941,1702.5865807533264
1942,1703.3825767040253
1943,1704.1665728092194
1944,1704.934569120407
1945,1705.7095651626587
1946,1706.5065612792969
1947,1707.2965574264526
1948,1708.0945534706116
1949,1708.9115493297577
1950,1709.7125453948975
1951,1710.5095415115356
1952,1711.312537431717
1953,1712.0995335578918
1954,1712.8755297660828
1955,1713.6635258197784
1956,1714.476521730423
1957,1715.303517818451
1958,1716.1325137615204
1959,1716.9745094776154
1960,1717.8265051841736
1961,1718.6735010147095
1962,1719.5354969501495
1963,1720.386492729187
1964,1721.2244884967804
1965,1722.0514843463898
1966,1722.88348031044
1967,1723.7214760780334
1968,1724.5544719696045
1969,1725.3934679031372
1970,1726.2394635677338
1971,1727.1144592761993
1972,1727.9704551696777
1973,1728.8274509906769
1974,1729.6754467487335
1975,1730.510442495346
1976,1731.319438457489
1977,1732.1144347190857
1978,1732.968430519104
1979,1733.8844258785248
1980,1734.8114213943481
1981,1735.7284166812897
1982,1736.6414122581482
1983,1737.5424077510834
1984,1738.4384033679962
1985,1739.3113989830017
1986,1740.1713948249817
1987,1741.0323905944824
1988,1741.9153861999512
1989,1742.7833819389343
1990,1743.677377462387
1991,1744.5933728218079
1992,1745.5223684310913
1993,1746.4623637199402
1994,1747.3863592147827
1995,1748.3023545742035
1996,1749.2123501300812
1997,1750.1313455104828
1998,1751.0553410053253
1999,1751.9973363876343
2000,1752.924331665039
2001,1753.8763270378113
2002,1754.8243222236633
2003,1755.7463178634644
2004,1756.6963131427765
2005,1757.6003086566925
2006,1758.5213041305542
2007,1759.437299489975
2008,1760.3672950267792
2009,1761.2912902832031
2010,1762.220285654068
2011,1763.1612811088562
2012,1764.1072764396667
2013,1765.041271686554
2014,1765.963267326355
2015,1766.8532629013062
2016,1767.7642583847046
2017,1768.653254032135
2018,1769.5482494831085
2019,1770.4632449150085
2020,1771.3932404518127
2021,1772.3002359867096
2022,1773.2362313270569
2023,1774.1782267093658
2024,1775.128221988678
2025,1776.0792171955109
2026,1777.0142126083374
2027,1777.9662079811096
2028,1778.8902032375336
2029,1779.8041987419128
2030,1780.6981942653656
2031,1781.5701899528503
2032,1782.4171857833862
2033,1783.3041815757751
2034,1784.228176832199
2035,1785.1691722869873
2036,1786.0801677703857
2037,1787.007163286209
2038,1787.9261586666107
2039,1788.864154100418
2040,1789.8081493377686
2041,1790.7131447792053
2042,1791.6291403770447
2043,1792.5441358089447
2044,1793.4641313552856
2045,1794.3591268062592
2046,1795.2831223011017
2047,1796.2241175174713
2048,1797.1741127967834
2049,1798.1061081886292
2050,1799.0341036319733
2051,1799.9500992298126
2052,1800.8660945892334
2053,1801.7600901126862
2054,1802.6710858345032
2055,1803.587081193924
2056,1804.5110766887665
2057,1805.444072008133
2058,1806.3690674304962
2059,1807.2770628929138
2060,1808.1880583763123
2061,1809.0860540866852
2062,1809.9940495491028
2063,1810.8830451965332
2064,1811.8130404949188
2065,1812.7480359077454
2066,1813.667031288147
2067,1814.5320270061493
2068,1815.3860228061676
2069,1816.2340185642242
2070,1817.0530145168304
2071,1817.8970103263855
2072,1818.7550060749054
2073,1819.6420018672943
2074,1820.527997493744
2075,1821.4029932022095
2076,1822.2819888591766
2077,1823.1679842472076
2078,1824.0639798641205
2079,1824.9589755535126
2080,1825.8289711475372
2081,1826.7149667739868
2082,1827.6149623394012
2083,1828.532957792282
2084,1829.452953338623
2085,1830.3649487495422
2086,1831.2549443244934
2087,1832.164939880371
2088,1833.0969352722168
2089,1834.0509305000305
2090,1835.034925699234
2091,1836.0029208660126
2092,1836.9369163513184
2093,1837.8609116077423
2094,1838.7769072055817
2095,1839.7039024829865
2096,1840.6368980407715
2097,1841.5518934726715
2098,1842.46488904953
2099,1843.37988448143
2100,1844.2888798713684
2101,1845.1898753643036
2102,1846.0998709201813
2103,1847.0238664150238
2104,1847.9308619499207
2105,1848.8268575668335
2106,1849.7338531017303
2107,1850.663848400116
2108,1851.578843832016
2109,1852.482839345932
2110,1853.4178347587585
2111,1854.3708300590515
2112,1855.303825378418
2113,1856.2218208312988
2114,1857.1418163776398
2115,1858.0218119621277
2116,1858.9118075370789
2117,1859.8128032684326
2118,1860.7117986679077
2119,1861.612794160843
2120,1862.5047898292542
2121,1863.3717856407166
2122,1864.258781194687
2123,1865.1607766151428
2124,1866.0897722244263
2125,1867.0147676467896
2126,1867.934762954712
2127,1868.8587584495544
2128,1869.7747538089752
2129,1870.6857492923737
2130,1871.5727450847626
2131,1872.4757404327393
2132,1873.3547360897064
2133,1874.2327318191528
2134,1875.1087274551392
2135,1875.9497232437134
2136,1876.7597193717957
2137,1877.5697152614594
2138,1878.3787114620209
2139,1879.2137072086334
2140,1880.050703048706
2141,1880.9036989212036
2142,1881.7646946907043
2143,1882.6186904907227
2144,1883.4416863918304
2145,1884.2416822910309
2146,1885.074678182602
2147,1885.9626739025116
2148,1886.8946692943573
2149,1887.8306646347046
2150,1888.7516601085663
2151,1889.656655550003
2152,1890.5396511554718
2153,1891.4226467609406
2154,1892.3046424388885
2155,1893.1896381378174
2156,1894.0796337127686
2157,1894.9626293182373
2158,1895.8736248016357
2159,1896.8066201210022
2160,1897.756615638733
2161,1898.7116107940674
2162,1899.6256062984467
2163,1900.525601863861
2164,1901.46559715271
2165,1902.4225924015045
2166,1903.368587732315
2167,1904.308583021164
2168,1905.2275786399841
2169,1906.1485741138458
2170,1907.0685694217682
2171,1907.9955649375916
2172,1908.9115602970123
2173,1909.8025560379028
2174,1910.7245514392853
2175,1911.6755466461182
2176,1912.6455419063568
2177,1913.628536939621
2178,1914.5775322914124
2179,1915.5185277462006
2180,1916.4505231380463
2181,1917.3865184783936
2182,1918.297513961792
2183,1919.1975095272064
2184,1920.0775051116943
2185,1920.9595007896423
2186,1921.8574962615967
2187,1922.7874917984009
2188,1923.735486984253
2189,1924.6894824504852
2190,1925.5964777469635
2191,1926.4704735279083
2192,1927.2894694805145
2193,1928.1014654636383
2194,1928.9034614562988
2195,1929.7034575939178
2196,1930.533453464508
2197,1931.3884491920471
2198,1932.251445055008
2199,1933.1224405765533
2200,1933.97043633461
2201,1934.8444321155548
2202,1935.7224278450012
2203,1936.616423368454
2204,1937.509418964386
2205,1938.4194145202637
2206,1939.3054101467133
2207,1940.1514058113098
2208,1940.9814016819
2209,1941.8053977489471
2210,1942.641393661499
2211,1943.5093891620636
2212,1944.38938498497
2213,1945.269380569458
2214,1946.1343762874603
2215,1947.004371881485
2216,1947.8703677654266
2217,1948.7263634204865
2218,1949.574359178543
2219,1950.4293551445007
2220,1951.3023507595062
2221,1952.1723463535309
2222,1953.0463421344757
2223,1953.9243378639221
2224,1954.788333415985
2225,1955.6543292999268
2226,1956.5323247909546
2227,1957.408320426941
2228,1958.2823162078857
2229,1959.161311864853
2230,1960.0123076438904
2231,1960.8443036079407
2232,1961.6812994480133
2233,1962.5122952461243
2234,1963.3432912826538
2235,1964.1632871627808
2236,1964.9832830429077
2237,1965.7942790985107
2238,1966.591275215149
2239,1967.3792712688446
2240,1968.1782672405243
2241,1968.9842631816864
2242,1969.7752594947815
2243,1970.564255475998
2244,1971.3402516841888
2245,1972.1282477378845
2246,1972.906243801117
2247,1973.6982400417328
2248,1974.4782361984253
2249,1975.250232219696
2250,1976.0112285614014
2251,1976.7492249011993
2252,1977.4652214050293
2253,1978.1782178878784
2254,1978.8952143192291
2255,1979.611210823059
2256,1980.3262071609497
2257,1981.0432035923004
2258,1981.7582001686096
2259,1982.487196445465
2260,1983.2221930027008
2261,1983.946189403534
2262,1984.681185722351
2263,1985.4241819381714
2264,1986.1721782684326
2265,1986.906174659729
2266,1987.6181712150574
2267,1988.324167728424
2268,1989.016164302826
2269,1989.6971609592438
2270,1990.3781576156616
2271,1991.0601541996002
2272,1991.7471506595612
2273,1992.4431471824646
2274,1993.1361439228058
2275,1993.8261404037476
2276,1994.516137123108
2277,1995.2041337490082
2278,1995.8911302089691
2279,1996.5861268043518
2280,1997.2891232967377
2281,1997.9951198101044
2282,1998.7071163654327
2283,1999.4081127643585
2284,2000.1091094017029
2285,2000.8191058635712
2286,2001.5181024074554
2287,2002.2240989208221
2288,2002.943095445633
2289,2003.6640918254852
2290,2004.39408826828
2291,2005.1180846691132
2292,2005.8550810813904
2293,2006.5890772342682
2294,2007.330073595047
2295,2008.0820698738098
2296,2008.8420662879944
2297,2009.5990624427795
2298,2010.341058731079
2299,2011.0860550403595
2300,2011.8290514945984
2301,2012.5720477104187
2302,2013.317044019699
2303,2014.055040359497
2304,2014.8110365867615
2305,2015.5680329799652
2306,2016.3230292797089
2307,2017.0870254039764
2308,2017.8460216522217
2309,2018.602017879486
2310,2019.3570141792297
2311,2020.107010602951
2312,2020.8690066337585
2313,2021.618003129959
2314,2022.369999408722
2315,2023.1279954910278
2316,2023.889991760254
2317,2024.662987947464
2318,2025.4199841022491
2319,2026.173980474472
2320,2026.9199767112732
2321,2027.6709730625153
2322,2028.4189693927765
2323,2029.1579656600952
2324,2029.909961938858
2325,2030.6789581775665
2326,2031.469954252243
2327,2032.6719484329224
2328,2033.7559430599213
2329,2034.4849393367767
2330,2035.2019357681274
2331,2035.9119322299957
2332,2036.628928899765
2333,2037.3479251861572
2334,2038.0909216403961
2335,2038.8619177341461
2336,2039.6609137058258
2337,2040.4569098949432
2338,2041.2629058361053
2339,2042.07990193367
2340,2042.9178977012634
2341,2043.7288937568665
2342,2044.5178897380829
2343,2045.2948858737946
2344,2046.077882051468
2345,2046.8538782596588
2346,2047.6418743133545
2347,2048.4508702754974
2348,2049.2498664855957
2349,2050.028862476349
2350,2050.8218586444855
2351,2051.6338546276093
2352,2052.478850364685
2353,2053.3218462467194
2354,2054.161842107773
2355,2054.9768381118774
2356,2055.765834093094
2357,2056.548830270767
2358,2057.333826303482
2359,2058.112822532654
2360,2058.898818731308
2361,2059.6878147125244
2362,2060.5098106861115
2363,2061.3288066387177
2364,2062.1438026428223
2365,2062.956798553467
2366,2063.762794494629
2367,2064.5717906951904
2368,2065.376786708832
2369,2066.1777827739716
2370,2066.9817786216736
2371,2067.764774799347
2372,2068.529771089554
2373,2069.294767141342
2374,2070.0657634735107
2375,2070.8157596588135
2376,2071.5647559165955
2377,2072.3057522773743
2378,2073.0457487106323
2379,2073.787744998932
2380,2074.5297412872314
2381,2075.3027374744415
2382,2076.133733510971
2383,2076.9987292289734
2384,2077.8897247314453
2385,2078.774720430374
2386,2079.652715921402
2387,2080.5217118263245
2388,2081.397707462311
2389,2082.260703086853
2390,2083.1256988048553
2391,2084.0066945552826
2392,2084.8516902923584
2393,2085.699686050415
2394,2086.537682056427
2395,2087.3696777820587
2396,2088.220673561096
2397,2089.0746693611145
2398,2089.9236652851105
2399,2090.75266122818
2400,2091.5846569538116
2401,2092.4116530418396
2402,2093.2316489219666
2403,2094.046644926071
2404,2094.856640815735
2405,2095.6796367168427
2406,2096.538632631302
2407,2097.4206280708313
2408,2098.30762386322
2409,2099.2136192321777
2410,2100.1236147880554
2411,2101.022610425949
2412,2101.905606031418
2413,2102.795601606369
2414,2103.6735973358154
2415,2104.5385930538177
2416,2105.4075887203217
2417,2106.250584602356
2418,2107.114580154419
2419,2107.971575975418
2420,2108.826571702957
2421,2109.678567647934
2422,2110.542563199997
2423,2111.3875591754913
2424,2112.2395548820496
2425,2113.092550754547
2426,2113.953546524048
2427,2114.8455419540405
2428,2115.7155377864838
2429,2116.5665335655212
2430,2117.4565291404724
2431,2118.3255248069763
2432,2119.184520483017
2433,2120.077516078949
2434,2120.9675116539
2435,2121.8535072803497
2436,2122.7385029792786
2437,2123.601498603821
2438,2124.493494272232
2439,2125.372489929199
2440,2126.2724854946136
2441,2127.162481069565
2442,2128.016476869583
2443,2128.876472711563
2444,2129.7164685726166
2445,2130.5124645233154
2446,2131.294460773468
2447,2132.0694568157196
2448,2132.847452878952
2449,2133.660449028015
2450,2134.5094447135925
2451,2135.3554406166077
2452,2136.2464361190796
2453,2137.138431787491
2454,2137.9964275360107
2455,2138.85142326355
2456,2139.7134189605713
2457,2140.5984146595
2458,2141.4624104499817
2459,2142.357405900955
2460,2143.2464015483856
2461,2144.1183972358704
2462,2144.992393016815
2463,2145.8803884983063
2464,2146.7853841781616
2465,2147.691379547119
2466,2148.612375020981
2467,2149.532370567322
2468,2150.4243659973145
2469,2151.3113617897034
2470,2152.2213571071625
2471,2153.137352705002
2472,2154.0723481178284
2473,2154.9843435287476
2474,2155.870339155197
2475,2156.799334526062
2476,2157.7293298244476
2477,2158.675325155258
2478,2159.5913207530975
2479,2160.501316308975
2480,2161.4243116378784
2481,2162.3533070087433
2482,2163.2893023490906
2483,2164.1952979564667
2484,2165.128293275833
2485,2166.040288925171
2486,2166.9372844696045
2487,2167.780280351639
2488,2168.6232759952545
2489,2169.4782717227936
2490,2170.359267473221
2491,2171.2502629756927
2492,2172.109258890152
2493,2172.953254699707
2494,2173.8172504901886
2495,2174.6722462177277
2496,2175.53724193573
2497,2176.3802378177643
2498,2177.2672333717346
2499,2178.1332290172577
2500,2179.0382244586945
2501,2180.019219636917
2502,2180.9792149066925
2503,2181.890210390091
2504,2182.7732059955597
2505,2183.6012020111084
2506,2184.4091980457306
2507,2185.2071940898895
2508,2186.0351898670197
2509,2186.8791856765747
2510,2187.716181755066
2511,2188.58517742157
2512,2189.4801728725433
2513,2190.3691685199738
2514,2191.264164209366
2515,2192.1581597328186
2516,2193.0461552143097
2517,2193.9231510162354
2518,2194.785146713257
2519,2195.6441423892975
2520,2196.4991381168365
2521,2197.365134000778
2522,2198.210129737854
2523,2199.05912566185
2524,2199.912121295929
2525,2200.759117126465
2526,2201.60511302948
2527,2202.424108982086
2528,2203.260104894638
2529,2204.0981006622314
2530,2204.949096441269
2531,2205.7830922603607
2532,2206.6000883579254
2533,2207.4040842056274
2534,2208.1850805282593
2535,2208.948076725006
2536,2209.7020728588104
2537,2210.4750690460205
2538,2211.3000650405884
2539,2212.1490607261658
2540,2212.986056804657
2541,2213.817052602768
2542,2214.6330485343933
2543,2215.445044517517
2544,2216.2380406856537
2545,2217.0350365638733
2546,2217.847032546997
2547,2218.6620285511017
2548,2219.4760246276855
2549,2220.316020488739
2550,2221.174016237259
2551,2222.0550117492676
2552,2222.9010076522827
2553,2223.7450034618378
2554,2224.5809993743896
2555,2225.40899515152
2556,2226.2389912605286
2557,2227.078987121582
2558,2227.9219827651978
2559,2228.780978679657
2560,2229.611974477768
2561,2230.4349703788757
2562,2231.2499663829803
2563,2232.0529623031616
2564,2232.8799583911896
2565,2233.714954137802
2566,2234.5499501228333
2567,2235.4029457569122
2568,2236.260941505432
2569,2237.121937274933
2570,2237.981933116913
2571,2238.8319289684296
2572,2239.680924654007
2573,2240.538920402527
2574,2241.3969161510468
2575,2242.2719118595123
2576,2243.1489074230194
2577,2244.03990316391
2578,2244.9458985328674
2579,2245.8738939762115
2580,2246.7608897686005
2581,2247.652885198593
2582,2248.56188082695
2583,2249.455876350403
2584,2250.3578717708588
2585,2251.2338676452637
2586,2252.093863248825
2587,2252.956859111786
2588,2253.830854654312
2589,2254.6948504447937
2590,2255.5648460388184
2591,2256.4358417987823
2592,2257.275837659836
2593,2258.135833501816
2594,2258.9778292179108
2595,2259.810825109482
2596,2260.6648209095
2597,2261.511816740036
2598,2262.3878123760223
2599,2263.249808073044
2600,2264.109803915024
2601,2264.757800579071
2602,2265.8497953414917
2603,2266.76079082489
2604,2267.637786388397
2605,2268.5407819747925
2606,2269.426777601242
2607,2270.3257732391357
2608,2271.190768957138
2609,2272.0477645397186
2610,2272.900760412216
2611,2273.7467563152313
2612,2274.6157519817352
2613,2275.461747646332
2614,2276.3137435913086
2615,2277.1797392368317
2616,2278.0517349243164
2617,2278.9057307243347
2618,2279.7667264938354
2619,2280.652722120285
2620,2281.537717819214
2621,2282.4137134552
2622,2283.3087089061737
2623,2284.2057044506073
2624,2285.1107001304626
2625,2285.981695652008
2626,2286.8616914749146
2627,2287.7196872234344
2628,2288.5636830329895
2629,2289.417678833008
2630,2290.255674600601
2631,2291.0956704616547
2632,2291.923666238785
2633,2292.7266623973846
2634,2294.002655982971
2635,2295.176650285721
2636,2295.9916462898254
2637,2296.831642150879
2638,2297.7066378593445
2639,2298.566633462906
2640,2299.481628894806
2641,2300.4166243076324
2642,2301.3316197395325
2643,2302.293615102768
2644,2303.2716102600098
2645,2304.254605293274
2646,2305.2366003990173
2647,2306.1995956897736
2648,2307.169590950012
2649,2308.1535861492157
2650,2309.144581079483
2651,2310.1145763397217
2652,2311.1025714874268
2653,2312.1135663986206
2654,2313.1055614948273
2655,2314.1085567474365
2656,2315.1245515346527
2657,2316.0935468673706
2658,2317.056542158127
2659,2318.0405371189117
2660,2319.0355322360992
2661,2320.0395274162292
2662,2321.053522348404
2663,2322.060517311096
2664,2323.035512447357
2665,2324.0125076770782
2666,2325.0205025672913
2667,2326.016497850418
2668,2327.024492740631
2669,2328.0324878692627
2670,2329.047482728958
2671,2330.057477712631
2672,2331.065472841263
2673,2332.042468070984
2674,2333.0184631347656
2675,2334.016458272934
2676,2335.026453256607
2677,2336.0334482192993
2678,2336.9964435100555
2679,2337.965438604355
2680,2338.952433824539
2681,2339.9404289722443
2682,2340.930423974991
2683,2341.918419122696
2684,2342.9184141159058
2685,2343.897409439087
2686,2344.8634045124054
2687,2345.8273997306824
2688,2346.7933950424194
2689,2347.786390066147
2690,2348.763385295868
2691,2349.71538066864
2692,2350.690375804901
2693,2351.6613709926605
2694,2352.6013662815094
2695,2353.5513615608215
2696,2354.511356830597
2697,2355.5013518333435
2698,2356.4843471050262
2699,2357.4363424777985
2700,2358.393337726593
2701,2359.3833327293396
2702,2360.3773279190063
2703,2361.3363230228424
2704,2362.309318304062
2705,2363.30331325531
2706,2364.3093082904816
2707,2365.3133034706116
2708,2366.28329873085
2709,2367.2632937431335
2710,2368.233289003372
2711,2369.192284345627
2712,2370.126279592514
2713,2371.070275068283
2714,2372.0252702236176
2715,2372.952265739441
2716,2373.870261192322
2717,2374.7892565727234
2718,2375.69425201416
2719,2376.606247663498
2720,2377.5002431869507
2721,2378.400238752365
2722,2379.2622344493866
2723,2380.148230075836
2724,2381.063225507736
2725,2381.9692211151123
2726,2382.87921667099
2727,2383.813211917877
2728,2384.772207260132
2729,2385.6912026405334
2730,2386.5841982364655
2731,2387.5151937007904
2732,2388.448189020157
2733,2389.385184288025
2734,2390.3361797332764
2735,2391.2861750125885
2736,2392.2341701984406
2737,2393.169165611267
2738,2394.0911610126495
2739,2395.051156282425
2740,2395.9991517066956
2741,2396.9741468429565
2742,2397.934142112732
2743,2398.889137506485
2744,2399.799132823944
2745,2400.7501282691956
2746,2401.7041234970093
2747,2402.6481187343597
2748,2403.603114128113
2749,2404.5271096229553
2750,2405.479104757309
2751,2406.443099975586
2752,2407.4190952777863
2753,2408.3880903720856
2754,2409.329085826874
2755,2410.2350811958313
2756,2411.1600766181946
2757,2412.074072122574
2758,2412.9920675754547
2759,2413.8960630893707
2760,2414.7570588588715
2761,2415.6010546684265
2762,2416.427050590515
2763,2417.2700464725494
2764,2418.1150422096252
2765,2418.943038225174
2766,2419.795033931732
2767,2420.6740295886993
2768,2421.5770251750946
2769,2422.45202088356
2770,2423.345016479492
2771,2424.22501206398
2772,2425.0950078964233
2773,2426.4370012283325
2774,2427.6649951934814
2775,2428.5009908676147
2776,2429.3399868011475
2777,2430.1759827136993
2778,2431.0279784202576
2779,2431.8639743328094
2780,2432.7329699993134
2781,2433.5989656448364
2782,2434.4689614772797
2783,2435.325957298279
2784,2436.18595290184
2785,2437.051948785782
2786,2437.9229443073273
2787,2438.7579402923584
2788,2439.607936143875
2789,2440.4459319114685
2790,2441.304927587509
2791,2442.1609234809875
2792,2443.0039191246033
2793,2443.8579149246216
2794,2444.7199108600616
2795,2445.570906639099
2796,2446.434902191162
2797,2447.3248977661133
2798,2448.210893392563
2799,2449.0748891830444
2800,2449.9778847694397
2801,2450.861880302429
2802,2451.7158761024475
2803,2452.568871974945
2804,2453.426867723465
2805,2454.2888634204865
2806,2455.1698591709137
2807,2456.0358548164368
2808,2456.9108505249023
2809,2457.8008460998535
2810,2458.6728417873383
2811,2459.553837299347
2812,2460.429833173752
2813,2461.2988288402557
2814,2462.175824403763
2815,2463.0538201332092
2816,2463.9418156147003
2817,2464.8088114261627
2818,2465.68980717659
2819,2466.5858025550842
2820,2467.451798439026
2821,2468.338793992996
2822,2469.218789577484
2823,2470.0977852344513
2824,2470.9817810058594
2825,2471.8367767333984
2826,2472.7007722854614
2827,2473.5837681293488
2828,2474.459763765335
2829,2475.325759410858
2830,2476.2117550373077
2831,2477.0867507457733
2832,2477.9737462997437
2833,2478.862741947174
2834,2479.7147376537323
2835,2480.597733259201
2836,2481.469728946686
2837,2482.334724664688
2838,2483.2127203941345
2839,2484.0697162151337
2840,2484.9147119522095
2841,2485.7747077941895
2842,2486.63370347023
2843,2487.504699230194
2844,2488.3796949386597
2845,2489.2366905212402
2846,2490.09468626976
2847,2490.9476821422577
2848,2491.8006780147552
2849,2492.643673658371
2850,2493.4886696338654
2851,2494.3426654338837
2852,2495.204661130905
2853,2496.0506570339203
2854,2496.9246525764465
2855,2497.767648458481
2856,2498.633644104004
2857,2499.493639945984
2858,2500.3546357154846
2859,2501.222631454468
2860,2502.0676271915436
2861,2502.9246230125427
2862,2503.77361869812
2863,2504.620614528656
2864,2505.4636104106903
2865,2506.327606201172
2866,2507.1736018657684
2867,2508.040597677231
2868,2508.906593322754
2869,2509.776589155197
2870,2510.6225848197937
2871,2511.462580680847
2872,2512.310576438904
2873,2513.164572238922
2874,2513.9935681819916
2875,2514.8135640621185
2876,2515.645560026169
2877,2516.4955558776855
2878,2517.3395516872406
2879,2518.1895475387573
2880,2519.0415432453156
2881,2519.8885390758514
2882,2520.7405347824097
2883,2521.575530767441
2884,2522.4125266075134
2885,2523.2555224895477
2886,2524.0815184116364
2887,2524.9455139636993
2888,2525.8005096912384
2889,2526.6605055332184
2890,2527.535501241684
2891,2528.3964970111847
2892,2529.247492790222
2893,2530.091488599777
2894,2530.9294843673706
2895,2531.7864801883698
2896,2532.6494760513306
2897,2533.509471654892
2898,2534.3524675369263
2899,2535.6374611854553
2900,2536.830455303192
2901,2537.6364512443542
2902,2538.4384472370148
2903,2539.238443374634
2904,2540.0614392757416
2905,2540.9134349823
2906,2541.803430557251
2907,2542.714426279068
2908,2543.5994217395782
2909,2544.4754173755646
2910,2545.35041308403
2911,2546.202409029007
2912,2547.054404735565
2913,2547.9194004535675
2914,2548.808396100998
2915,2549.6863915920258
2916,2550.553387403488
2917,2551.4433829784393
2918,2552.3593785762787
2919,2553.2753739356995
2920,2554.161369562149
2921,2555.0453650951385
2922,2555.9523606300354
2923,2556.841356277466
2924,2557.698352098465
2925,2558.572347640991
2926,2559.446343421936
2927,2560.3113391399384
2928,2561.1633348464966
2929,2562.032330751419
2930,2562.887326478958
2931,2563.751322031021
2932,2564.627317905426
2933,2565.49431347847
2934,2566.3663091659546
2935,2567.2513048648834
2936,2568.1063005924225
2937,2568.981296300888
2938,2569.842292070389
2939,2570.7032878398895
2940,2571.5532834529877
2941,2572.407279253006
2942,2573.245275259018
2943,2574.100270986557
2944,2574.958266735077
2945,2575.818262577057
2946,2576.665258169174
2947,2577.5322539806366
2948,2578.408249616623
2949,2579.28724527359
2950,2580.1862409114838
2951,2581.0552365779877
2952,2581.9162323474884
2953,2582.7822279930115
2954,2583.644223690033
2955,2584.5272192955017
2956,2585.41121506691
2957,2586.289210796356
2958,2587.1682064533234
2959,2588.0212020874023
2960,2588.885197877884
2961,2589.7581934928894
2962,2590.6151893138885
2963,2591.4591851234436
2964,2592.3251807689667
2965,2593.1981766223907
2966,2594.0821721553802
2967,2594.9741678237915
2968,2595.8761632442474
2969,2596.737159013748
2970,2597.5921547412872
2971,2598.466150522232
2972,2599.3531460762024
2973,2600.242141723633
2974,2601.1231372356415
2975,2601.9971330165863
2976,2602.844128847122
2977,2603.713124513626
2978,2604.595120191574
2979,2605.4601159095764
2980,2606.3341114521027
2981,2607.21510720253
2982,2608.097102880478
2983,2608.976098537445
2984,2609.844094276428
2985,2610.7150897979736
2986,2611.5880856513977
2987,2612.465081214905
2988,2613.332077026367
2989,2614.1780726909637
2990,2615.034068584442
2991,2615.8970642089844
2992,2616.7700600624084
2993,2617.656055688858
2994,2618.534051179886
2995,2619.393047094345
2996,2620.2750425338745
2997,2621.164038181305
2998,2622.054033756256
2999,2622.9320294857025
3000,2623.84002494812
3001,2624.758020401001
3002,2625.656016111374
3003,2626.557011604309
3004,2627.424007177353
3005,2628.283003091812
3006,2629.1619987487793
3007,2630.0159945487976
3008,2630.886990070343
3009,2631.7729856967926
3010,2632.6199815273285
3011,2633.469977378845
3012,2634.344973087311
3013,2635.218968629837
3014,2636.090964317322
3015,2636.936960220337
3016,2637.7789561748505
3017,2638.627951860428
3018,2639.484947681427
3019,2640.339943408966
3020,2641.207939147949
3021,2642.06693482399
3022,2642.9089307785034
3023,2643.7559266090393
3024,2644.6169221401215
3025,2645.4819180965424
3026,2646.3619136810303
3027,2647.2549092769623
3028,2648.137904882431
3029,2649.004900455475
3030,2649.8828961849213
3031,2650.7428920269012
3032,2651.601887702942
3033,2652.4518835544586
3034,2653.291879415512
3035,2654.1458752155304
3036,2655.0248708724976
3037,2655.9178664684296
3038,2656.817862033844
3039,2657.6938576698303
3040,2658.5738532543182
3041,2659.4508488178253
3042,2660.3098447322845
3043,2661.195840358734
3044,2662.0778357982635
3045,2662.9858314990997
3046,2663.8898270130157
3047,2664.7728226184845
3048,2665.6498181819916
3049,2666.540813922882
3050,2667.41880941391
3051,2668.327805042267
3052,2669.214800596237
3053,2670.1167962551117
3054,2671.0307915210724
3055,2671.9267871379852
3056,2672.8077828884125
3057,2673.6637785434723
3058,2674.5117745399475
3059,2675.3747701644897
3060,2676.2337658405304
3061,2677.1047616004944
3062,2677.988757133484
3063,2678.8637528419495
3064,2679.7377486228943
3065,2680.6157443523407
3066,2681.486739873886
3067,2682.35773563385
3068,2683.218731403351
3069,2684.0747270584106
3070,2684.9247229099274
3071,2685.7937185764313
3072,2686.6557142734528
3073,2687.5327100753784
3074,2688.404705762863
3075,2689.3017013072968
3076,2690.179697036743
3077,2691.0446927547455
3078,2691.9346883296967
3079,2692.8176839351654
3080,2693.7106795310974
3081,2694.5876750946045
3082,2695.476670742035
3083,2696.3766663074493
3084,2697.262661933899
3085,2698.141657590866
3086,2699.035653114319
3087,2699.936648607254
3088,2700.875643968582
3089,2701.7646396160126
3090,2702.664635181427
3091,2703.581630706787
3092,2704.4656262397766
3093,2705.367621898651
3094,2706.249617576599
3095,2707.152612924576
3096,2708.0536086559296
3097,2708.9606041908264
3098,2709.8495995998383
3099,2710.7655951976776
3100,2711.6615908145905
3101,2712.555586338043
3102,2713.498581647873
3103,2714.399577140808
3104,2715.2755727767944
3105,2716.1335685253143
3106,2716.997564315796
3107,2717.8695600032806
3108,2718.7545557022095
3109,2719.627551317215
3110,2720.5255467891693
3111,2721.4065425395966
3112,2722.3085379600525
3113,2723.194533586502
3114,2724.079529285431
3115,2724.9515249729156
3116,2725.829520702362
3117,2726.7165162563324
3118,2727.610511779785
3119,2728.4805076122284
3120,2729.352503299713
3121,2730.234498977661
3122,2731.1194944381714
3123,2732.0004901885986
3124,2732.8994855880737
3125,2733.7894814014435
3126,2734.6469769477844
3127,2735.504472732544
3128,2736.3584685325623
3129,2737.230464220047
3130,2738.101459980011
3131,2738.9734556674957
3132,2739.8484513759613
3133,2741.164444923401
3134,2742.386438846588
3135,2743.2254345417023
3136,2744.0554304122925
3137,2744.8824265003204
3138,2745.7104222774506
3139,2746.5434181690216
3140,2747.421413898468
3141,2748.317409515381
3142,2749.22740483284
3143,2750.124400615692
3144,2751.028396129608
3145,2751.9243915081024
3146,2752.8273870944977
3147,2753.7013828754425
3148,2754.5673785209656
3149,2755.3903744220734
3150,2756.197370529175
3151,2756.978366613388
3152,2757.7533628940582
3153,2758.549358844757
3154,2759.3543548583984
3155,2760.183350801468
3156,2761.037346601486
3157,2761.898342370987
3158,2762.751338005066
3159,2763.578334093094
3160,2764.414329767227
3161,2765.25332570076
3162,2766.107321500778
3163,2766.9803171157837
3164,2767.8663127422333
3165,2768.7613084316254
3166,2769.642303943634
3167,2770.5302996635437
3168,2771.418295145035
3169,2772.32129073143
3170,2773.2482862472534
3171,2774.1842815876007
3172,2775.1162769794464
3173,2776.036272287369
3174,2776.919268131256
3175,2777.8252635002136
3176,2778.7462589740753
3177,2779.6492545604706
3178,2780.527250289917
3179,2781.4202456474304
3180,2782.3562412261963
3181,2783.3092365264893
3182,2784.2542316913605
3183,2785.203227043152
3184,2786.1602222919464
3185,2787.105217695236
3186,2788.0202131271362
3187,2788.9322085380554
3188,2789.855204105377
3189,2790.782199382782
3190,2791.7031948566437
3191,2792.5881905555725
3192,2793.4931859970093
3193,2794.401181459427
3194,2795.320177078247
3195,2796.2511723041534
3196,2797.2191677093506
3197,2798.1721630096436
3198,2799.1121582984924
3199,2800.031153678894
3200,2800.914149284363
3201,2801.768145084381
3202,2802.6551406383514
3203,2803.549136400223
3204,2804.488131761551
3205,2805.4211270809174
3206,2806.3831222057343
3207,2807.330117702484
3208,2808.2651131153107
3209,2809.1811084747314
3210,2810.0991039276123
3211,2811.006099462509
3212,2811.900094985962
3213,2812.7630908489227
3214,2813.634086370468
3215,2814.5150821208954
3216,2815.423077583313
3217,2816.3310730457306
3218,2817.223068714142
3219,2818.0820643901825
3220,2818.9120602607727
3221,2819.7270562648773
3222,2820.544052362442
3223,2821.352048397064
3224,2822.1420443058014
3225,2822.9280405044556
3226,2823.74303650856
3227,2824.588032245636
3228,2825.4410281181335
3229,2826.2970237731934
3230,2827.150019645691
3231,2827.9990153312683
3232,2828.839011192322
3233,2829.6770071983337
3234,2830.505002975464
3235,2831.348998785019
3236,2832.1649947166443
3237,2832.9999907016754
3238,2833.8109867572784
3239,2834.598982810974
3240,2835.377979040146
3241,2836.1659750938416
3242,2836.968971014023
3243,2837.7809669971466
3244,2838.6069629192352
3245,2839.4499588012695
3246,2840.3079545497894
3247,2841.171950340271
3248,2842.048945903778
3249,2842.906941652298
3250,2843.780937433243
3251,2844.669933080673
3252,2845.5849285125732
3253,2846.5239238739014
3254,2847.4739191532135
3255,2848.3789145946503
3256,2849.274910211563
3257,2850.170905828476
3258,2851.09690117836
3259,2852.04189658165
3260,2852.999891757965
3261,2853.917887210846
3262,2854.8538825511932
3263,2855.7378783226013
3264,2856.5908739566803
3265,2857.445869922638
3266,2858.3028655052185
3267,2859.16486120224
3268,2860.0548570156097
3269,2860.952852487564
3270,2861.8338479995728
3271,2862.695843935013
3272,2863.560839653015
3273,2864.426835298538
3274,2865.297831058502
3275,2866.178826570511
3276,2867.084822177887
3277,2867.9688177108765
3278,2868.8618133068085
3279,2869.758808851242
3280,2870.6838042736053
3281,2871.596799850464
3282,2872.519795179367
3283,2873.4517905712128
3284,2874.357786178589
3285,2875.2677817344666
3286,2876.189777135849
3287,2877.10777258873
3288,2878.038768053055
3289,2878.9457635879517
3290,2879.8267590999603
3291,2880.7357547283173
3292,2881.642750263214
3293,2882.5647456645966
3294,2883.4917409420013
3295,2884.415736436844
3296,2885.329731941223
3297,2886.245727300644
3298,2887.1557228565216
3299,2888.067718267441
3300,2888.9807138442993
3301,2889.8607094287872
3302,2890.769705057144
3303,2891.7057003974915
3304,2892.648695707321
3305,2893.5816910266876
3306,2894.483686685562
3307,2895.390682220459
3308,2896.2846777439117
3309,2897.176673412323
3310,2898.0816688537598
3311,2898.9676644802094
3312,2899.850660085678
3313,2900.77165555954
3314,2901.699651002884
3315,2902.6536462306976
3316,2903.583641767502
3317,2904.4776372909546
3318,2905.3676328659058
3319,2906.26762843132
3320,2907.1766238212585
3321,2908.0856194496155
3322,2909.0006148815155
3323,2909.922610282898
3324,2910.8196058273315
3325,2911.7406013011932
3326,2912.648596763611
3327,2913.5235924720764
3328,2914.4165880680084
3329,2915.2765839099884
3330,2916.1665794849396
3331,2917.05157494545
3332,2917.922570705414
3333,2918.7965664863586
3334,2919.6875619888306
3335,2920.568557739258
3336,2921.46155333519
3337,2922.3335490226746
3338,2923.1775448322296
3339,2924.018540620804
3340,2924.870536327362
3341,2925.738532066345
3342,2926.6545276641846
3343,2927.588522911072
3344,2928.5235183238983
3345,2929.420513868332
3346,2930.3095095157623
3347,2931.203505039215
3348,2932.088500738144
3349,2932.976496219635
3350,2933.872491836548
3351,2934.7694873809814
3352,2935.6374831199646
3353,2936.4974789619446
3354,2937.354474544525
3355,2938.2294702529907
3356,2939.1314659118652
3357,2940.027461528778
3358,2940.9554567337036
3359,2941.857452392578
3360,2942.74844789505
3361,2943.6424436569214
3362,2944.526439189911
3363,2945.4144349098206
3364,2946.284430503845
3365,2947.178426027298
3366,2948.0664217472076
3367,2948.9474172592163
3368,2949.8044130802155
3369,2950.6504089832306
3370,2951.4974048137665
3371,2952.3604004383087
3372,2953.216396331787
3373,2954.0813920497894
3374,2954.930387735367
3375,2955.7703835964203
3376,2956.6143794059753
3377,2957.4693751335144
3378,2958.3233709335327
3379,2959.1813666820526
3380,2960.03436255455
3381,2960.915358066559
3382,2961.7783539295197
3383,2962.6693494319916
3384,2963.5633449554443
3385,2964.4523406028748
3386,2965.3213362693787
3387,2966.191332101822
3388,2967.0893275737762
3389,2967.9763231277466
3390,2968.8613188266754
3391,2969.7133145332336
3392,2970.5753104686737
3393,2971.446305990219
3394,2972.328301668167
3395,2973.211297273636
3396,2974.1072928905487
3397,2975.018288373947
3398,2975.9122838974
3399,2976.7922797203064
3400,2977.6832752227783
3401,2978.5732707977295
3402,2979.4642663002014
3403,2980.3322620391846
3404,2981.1942579746246
3405,2982.0742535591125
3406,2982.9532492160797
3407,2983.8592445850372
3408,2984.7722401618958
3409,2985.6472358703613
3410,2986.541231393814
3411,2987.4282269477844
3412,2988.3352224826813
3413,2989.2392179965973
3414,2990.154213666916
3415,2991.064208984375
3416,2991.954204559326
3417,2992.8212003707886
3418,2993.68319606781
3419,2994.5231919288635
3420,2995.374187707901
3421,2996.2221834659576
3422,2997.056179523468
3423,2997.8961753845215
3424,2998.7621710300446
3425,2999.6551666259766
3426,3000.6031618118286
3427,3001.5621571540833
3428,3002.5371522903442
3429,3003.490147590637
3430,3004.4201431274414
3431,3005.3321385383606
3432,3006.2771339416504
3433,3007.221129179001
3434,3008.168124437332
3435,3009.0851199626923
3436,3010.0131154060364
3437,3010.940110683441
3438,3011.8781061172485
3439,3012.826101541519
3440,3013.7350969314575
3441,3014.670092344284
3442,3015.599087715149
3443,3016.5330832004547
3444,3017.467078447342
3445,3018.3790740966797
3446,3019.2870695590973
3447,3020.2070648670197
3448,3021.1410603523254
3449,3022.09605550766
3450,3023.0660507678986
3451,3024.0210461616516
3452,3024.9640414714813
3453,3025.9130368232727
3454,3026.879031896591
3455,3027.84902715683
3456,3028.7840225696564
3457,3029.6850180625916
3458,3030.610013484955
3459,3031.5420088768005
3460,3032.4950041770935
3461,3033.4479994773865
3462,3034.3849947452545
3463,3035.297990322113
3464,3036.2249858379364
3465,3037.1489810943604
3466,3038.0759766101837
3467,3039.0069720745087
3468,3039.9109675884247
3469,3040.8139629364014
3470,3041.7549583911896
3471,3042.692953824997
3472,3043.6579489707947
3473,3044.618944168091
3474,3045.5449397563934
3475,3046.5059349536896
3476,3047.484930038452
3477,3048.475925207138
3478,3049.4459204673767
3479,3050.36891579628
3480,3051.3259110450745
3481,3052.2779064178467
3482,3053.235901594162
3483,3054.2188968658447
3484,3055.179892063141
3485,3056.1198873519897
3486,3057.0788826942444
3487,3058.032877922058
3488,3058.9848732948303
3489,3059.9108686447144
3490,3060.853863954544
3491,3061.792859315872
3492,3062.686854839325
3493,3063.604850292206
3494,3064.53284573555
3495,3065.424841403961
3496,3066.291836977005
3497,3067.1588327884674
3498,3068.0518283843994
3499,3068.946823835373
3500,3069.8428194522858
3501,3070.747815132141
3502,3071.6538105010986
3503,3072.555806159973
3504,3073.449801683426
3505,3074.3477971553802
3506,3075.2407927513123
3507,3076.160788297653
3508,3077.0837836265564
3509,3077.98277926445
3510,3078.8527748584747
3511,3079.7547705173492
3512,3080.6427659988403
3513,3081.5587615966797
3514,3082.496757030487
3515,3083.4327523708344
3516,3084.373747587204
3517,3085.3097429275513
3518,3086.2207384109497
3519,3087.149734020233
3520,3088.0747294425964
3521,3088.994724750519
3522,3089.9037203788757
3523,3090.8007159233093
3524,3091.7227113246918
3525,3092.650706768036
3526,3093.573702096939
3527,3094.4766976833344
3528,3095.387693166733
3529,3096.299688577652
3530,3097.217684030533
3531,3098.1516795158386
3532,3099.1016747951508
3533,3100.034670114517
3534,3100.954665660858
3535,3101.8906610012054
3536,3102.8266563415527
3537,3103.7686517238617
3538,3104.720647096634
3539,3105.646642446518
3540,3106.569637775421
3541,3107.5206332206726
3542,3108.480628490448
3543,3109.441623687744
3544,3110.397619009018
3545,3111.331614255905
3546,3112.274609565735
3547,3113.2206048965454
3548,3114.180600166321
3549,3115.134595632553
3550,3116.055590867996
3551,3116.973586320877
3552,3117.895581960678
3553,3118.8295772075653
3554,3119.7655725479126
3555,3120.7075679302216
3556,3121.623563528061
3557,3122.560558795929
3558,3123.5225541591644
3559,3124.5065491199493
3560,3125.4755444526672
3561,3126.427539587021
3562,3127.352535009384
3563,3128.2925305366516
3564,3129.228525876999
3565,3130.162521123886
3566,3131.072516679764
3567,3131.961512327194
3568,3132.8735077381134
3569,3133.785503387451
3570,3134.704498767853
3571,3135.627494096756
3572,3136.536489725113
3573,3137.454485177994
3574,3138.3754806518555
3575,3139.305475950241
3576,3140.222471475601
3577,3141.1204669475555
3578,3142.057462453842
3579,3143.0064578056335
3580,3143.948452949524
3581,3144.881448507309
3582,3145.7984437942505
3583,3146.7344393730164
3584,3147.6594347953796
3585,3148.5754301548004
3586,3149.505425453186
3587,3150.400421142578
3588,3151.318416595459
3589,3152.2344119548798
3590,3153.1584074497223
3591,3154.093402862549
3592,3154.999398469925
3593,3155.895393848419
3594,3156.8123893737793
3595,3157.7483847141266
3596,3158.6933801174164
3597,3159.6443753242493
3598,3160.600370645523
3599,3161.5493659973145
3600,3162.471361398697
3601,3163.4053568840027
3602,3164.340352296829
3603,3165.2853474617004
3604,3166.1923429965973
3605,3167.094338655472
3606,3168.0343339443207
3607,3168.967329263687
3608,3169.887324810028
3609,3170.7963201999664
3610,3171.7003157138824
3611,3172.576311349869
3612,3173.419307231903
3613,3174.266303062439
3614,3175.1082990169525
3615,3175.9392948150635
3616,3176.7832906246185
3617,3177.6402864456177
3618,3178.4952821731567
3619,3179.3542778491974
3620,3180.1882739067078
3621,3181.0302696228027
3622,3181.875265598297
3623,3182.73926115036
3624,3183.608256816864
3625,3184.4562528133392
3626,3185.328248500824
3627,3186.2042441368103
3628,3187.0972397327423
3629,3187.9612352848053
3630,3188.8442311286926
3631,3189.7432265281677
3632,3190.6642220020294
3633,3191.587217569351
3634,3192.500212907791
3635,3193.4252083301544
3636,3194.349203824997
3637,3195.2571992874146
3638,3196.16019487381
3639,3197.072190284729
3640,3197.965185880661
3641,3198.858181476593
3642,3199.7771768569946
3643,3200.7191722393036
3644,3201.6521677970886
3645,3202.563163280487
3646,3203.4821586608887
3647,3204.4001541137695
3648,3205.3231494426727
3649,3206.2321450710297
3650,3207.1631405353546
3651,3208.0951359272003
3652,3209.009131193161
3653,3209.915126800537
3654,3210.8011224269867
3655,3211.7211179733276
3656,3212.6491134166718
3657,3213.591108560562
3658,3214.5081040859222
3659,3215.41609954834
3660,3216.3270950317383
3661,3217.2320907115936
3662,3218.0900864601135
3663,3218.976082086563
3664,3219.872077703476
3665,3220.7970731258392
3666,3221.705068588257
3667,3222.604063987732
3668,3223.523059606552
3669,3224.449054956436
3670,3225.3960502147675
3671,3226.3250455856323
3672,3227.2070412635803
3673,3228.104036808014
3674,3229.0270323753357
3675,3229.9240279197693
3676,3230.810023546219
3677,3231.708019018173
3678,3232.5990147590637
3679,3233.5020101070404
3680,3234.412005662918
3681,3235.2910013198853
3682,3236.1909968852997
3683,3237.0849924087524
3684,3237.9829881191254
3685,3238.8699836730957
3686,3239.76997923851
3687,3240.663974761963
3688,3241.586970090866
3689,3242.4859657287598
3690,3243.3499615192413
3691,3244.2039573192596
3692,3245.0589530467987
3693,3245.924948692322
3694,3246.8079442977905
3695,3247.6994400024414
3696,3248.5909354686737
3697,3249.436931371689
3698,3250.312927007675
3699,3251.2259225845337
3700,3252.142918109894
3701,3253.054913520813
3702,3253.969908952713
3703,3254.8719046115875
3704,3255.7869000434875
3705,3256.7188954353333
3706,3257.6278908252716
3707,3258.530886411667
3708,3259.4388818740845
3709,3260.3618774414062
3710,3261.277872800827
3711,3262.205868244171
3712,3263.126863718033
3713,3264.024859189987
3714,3264.934854745865
3715,3265.846850156784
3716,3266.7818455696106
3717,3267.718841075897
3718,3268.6498363018036
3719,3269.6188316345215
3720,3270.5968267917633
3721,3271.575821876526
3722,3272.565817117691
3723,3273.524812221527
3724,3274.4608075618744
3725,3275.349803209305
3726,3276.192799091339
3727,3277.036794900894
3728,3277.8997905254364
3729,3278.7867863178253
3730,3279.6867818832397
3731,3280.5487775802612
3732,3281.3997733592987
3733,3282.2347691059113
3734,3283.0567650794983
3735,3283.8807611465454
3736,3284.7217569351196
3737,3285.5577528476715
3738,3286.403748512268
3739,3287.253744363785
3740,3288.121740102768
3741,3288.967736005783
3742,3289.8267316818237
3743,3290.70272731781
3744,3291.5867228507996
3745,3292.4837186336517
3746,3293.3807141780853
3747,3294.2717096805573
3748,3295.179705142975
3749,3296.066700696945
3750,3296.967696428299
3751,3297.890691757202
3752,3298.80068731308
3753,3299.6946828365326
3754,3300.5856783390045
3755,3301.4816739559174
3756,3302.3876695632935
3757,3303.309664964676
3758,3304.2086606025696
3759,3305.106656074524
3760,3306.0126516819
3761,3306.9236471652985
3762,3307.864642381668
3763,3308.795637845993
3764,3309.7276332378387
3765,3310.630628824234
3766,3311.515624523163
3767,3312.401619911194
3768,3313.298615694046
3769,3314.202611207962
3770,3315.1246066093445
3771,3316.024602174759
3772,3316.9085977077484
3773,3317.794593334198
3774,3318.6975889205933
3775,3319.607584476471
3776,3320.5245797634125
3777,3321.4425752162933
3778,3322.3455708026886
3779,3323.2375664711
3780,3324.1105620861053
3781,3324.9565579891205
3782,3325.793553829193
3783,3326.6315495967865
3784,3327.4865453243256
3785,3328.352541208267
3786,3329.2125368118286
3787,3330.0725326538086
3788,3330.93652844429
3789,3331.7995240688324
3790,3332.6595199108124
3791,3333.5285155773163
3792,3334.3885111808777
3793,3335.2605068683624
3794,3336.140502691269
3795,3337.019498348236
3796,3337.88849401474
3797,3338.756489753723
3798,3339.6324853897095
3799,3340.5094809532166
3800,3341.400476694107
3801,3342.2904722690582
3802,3343.1694679260254
3803,3344.053463459015
3804,3344.9524590969086
3805,3345.8424546718597
3806,3346.7254502773285
3807,3347.600445985794
3808,3348.4844415187836
3809,3349.381437063217
3810,3350.27743268013
3811,3351.186428308487
3812,3352.068423986435
3813,3352.959419488907
3814,3353.865415096283
3815,3354.7474105358124
3816,3355.599406480789
3817,3356.469402074814
3818,3357.348397731781
3819,3358.2503933906555
3820,3359.159388780594
3821,3360.0693843364716
3822,3360.967379808426
3823,3361.898375272751
3824,3362.829370737076
3825,3363.7483661174774
3826,3364.6553616523743
3827,3365.541357278824
3828,3366.423352956772
3829,3367.3033485412598
3830,3368.19034409523
3831,3369.070339679718
3832,3369.9363355636597
3833,3370.826331138611
3834,3371.7073266506195
3835,3372.5993223190308
3836,3373.4873180389404
3837,3374.37331366539
3838,3375.2603092193604
3839,3376.1423048973083
3840,3377.0333003997803
3841,3377.91729593277
3842,3378.8152916431427
3843,3379.699287176132
3844,3380.5882828235626
3845,3381.485278367996
3846,3382.395273923874
3847,3383.310269355774
3848,3384.21626496315
3849,3385.104260444641
3850,3386.0092561244965
3851,3386.907251596451
3852,3387.799247264862
3853,3388.676242828369
3854,3389.586238384247
3855,3390.4942338466644
3856,3391.407229423523
3857,3392.311224937439
3858,3393.19922041893
3859,3394.105216026306
3860,3395.0172114372253
3861,3395.9332070350647
3862,3396.844202518463
3863,3397.7391979694366
3864,3398.639193534851
3865,3399.5251891613007
3866,3400.4201848506927
3867,3401.320180416107
3868,3402.21417593956
3869,3403.1011714935303
3870,3404.010167121887
3871,3404.9331624507904
3872,3405.863157749176
3873,3406.7891533374786
3874,3407.6931488513947
3875,3408.577144384384
3876,3409.45414018631
3877,3410.329135656357
3878,3411.210131406784
3879,3412.0961270332336
3880,3412.9781227111816
3881,3413.8721182346344
3882,3414.742113828659
3883,3415.626109600067
3884,3416.506105184555
3885,3417.3681008815765
3886,3418.200096845627
3887,3419.0670926570892
3888,3419.9520881175995
3889,3420.8480837345123
3890,3421.761079311371
3891,3422.6690747737885
3892,3423.5730702877045
3893,3424.4880657196045
3894,3425.413061141968
3895,3426.3560564517975
3896,3427.302051782608
3897,3428.235047340393
3898,3429.181042432785
3899,3430.0750381946564
3900,3430.9510338306427
3901,3431.8450293540955
3902,3432.7480249404907
3903,3433.6580204963684
3904,3434.528016090393
3905,3435.408011674881
3906,3436.298007249832
3907,3437.202002763748
3908,3438.1079983711243
3909,3439.0139939785004
3910,3439.907989501953
3911,3440.8089849948883
3912,3441.7099804878235
3913,3442.619976043701
3914,3443.540971517563
3915,3444.438966989517
3916,3445.3089628219604
3917,3446.1939585208893
3918,3447.0689539909363
3919,3447.9499497413635
3920,3448.838945388794
3921,3449.7199409008026
3922,3450.5809366703033
3923,3451.4509325027466
3924,3452.3089282512665
3925,3453.180923938751
3926,3454.062919616699
3927,3454.9359152317047
3928,3455.811910867691
3929,3456.704906463623
3930,3457.619901895523
3931,3458.5198974609375
3932,3459.4148931503296
3933,3460.311888694763
3934,3461.2118842601776
3935,3462.1058797836304
3936,3462.9988753795624
3937,3463.8868708610535
3938,3464.7818665504456
3939,3465.666862010956
3940,3466.5428578853607
3941,3467.427853345871
3942,3468.2948491573334
3943,3469.1388449668884
3944,3470.0148406028748
3945,3470.906836271286
3946,3471.799831867218
3947,3472.6978273391724
3948,3473.5908229351044
3949,3474.4698185920715
3950,3475.355814218521
3951,3476.23880982399
3952,3477.118805408478
3953,3477.996801137924
3954,3478.8697967529297
3955,3479.739792585373
3956,3480.608788251877
3957,3481.4787838459015
3958,3482.3577795028687
3959,3483.2347753047943
3960,3484.131770849228
3961,3485.0227663517
3962,3485.9167618751526
3963,3486.8037576675415
3964,3487.7077531814575
3965,3488.6247487068176
3966,3489.5247440338135
3967,3490.413739681244
3968,3491.3047354221344
3969,3492.199730873108
3970,3493.0887265205383
3971,3493.9557223320007
3972,3494.815717935562
3973,3495.6797137260437
3974,3496.5397095680237
3975,3497.412705183029
3976,3498.2857007980347
3977,3499.1626965999603
3978,3500.030692100525
3979,3500.9076879024506
3980,3501.7856833934784
3981,3502.652679204941
3982,3503.498675107956
3983,3504.36767077446
3984,3505.224666595459
3985,3506.0866622924805
3986,3506.9436581134796
3987,3507.7826538085938
3988,3508.6406495571136
3989,3509.4956452846527
3990,3510.3716411590576
3991,3511.247636795044
3992,3512.138632297516
3993,3513.0236279964447
3994,3513.9036235809326
3995,3514.7596192359924
3996,3515.626615047455
3997,3516.491610765457
3998,3517.354606628418
3999,3518.2116022109985
4000,3519.056598186493
4001,3519.906593799591
4002,3520.7515897750854
4003,3521.611585378647
4004,3522.4775812625885
4005,3523.3305768966675
4006,3524.183572769165
4007,3525.02756857872
4008,3525.866564512253
4009,3526.6885602474213
4010,3527.5115563869476
4011,3528.361552000046
4012,3529.2135479450226
4013,3530.0575437545776
4014,3530.886539697647
4015,3531.729535341263
4016,3532.5795311927795
4017,3533.4455268383026
4018,3534.315522670746
4019,3535.1825182437897
4020,3536.036514043808
4021,3536.8795099258423
4022,3537.7345056533813
4023,3538.584501504898
4024,3539.4404973983765
4025,3540.272493124008
4026,3541.095489025116
4027,3541.9354848861694
4028,3542.777480840683
4029,3543.6234765052795
4030,3544.489472389221
4031,3545.3574681282043
4032,3546.2124638557434
4033,3547.0894594192505
4034,3547.9614551067352
4035,3548.8294508457184
4036,3549.690446615219
4037,3550.5414423942566
4038,3551.371438264847
4039,3552.217434167862
4040,3553.0574300289154
4041,3553.9144258499146
4042,3554.7544214725494
4043,3555.571417570114
4044,3556.407413482666
4045,3557.240409374237
4046,3558.0814051628113
4047,3558.937400817871
4048,3559.789396762848
4049,3560.6293926239014
4050,3561.500388145447
4051,3562.3743839263916
4052,3563.264379501343
4053,3564.151375055313
4054,3565.0263707637787
4055,3565.8793666362762
4056,3566.7393622398376
4057,3567.5883581638336
4058,3568.4543538093567
4059,3569.3233494758606
4060,3570.190345287323
4061,3571.06734085083
4062,3571.9353365898132
4063,3572.7863323688507
4064,3573.651328086853
4065,3574.511323928833
4066,3575.377319574356
4067,3576.2363152503967
4068,3577.090311050415
4069,3577.93430685997
4070,3578.8013026714325
4071,3579.674298286438
4072,3580.545294046402
4073,3581.4152896404266
4074,3582.2592854499817
4075,3583.1232812404633
4076,3583.976277112961
4077,3584.8372728824615
4078,3585.699268579483
4079,3586.5532643795013
4080,3587.398260116577
4081,3588.232255935669
4082,3589.0772519111633
4083,3589.9072477817535
4084,3590.758243560791
4085,3591.5932393074036
4086,3592.425235271454
4087,3593.2812311649323
4088,3594.1252269744873
4089,3594.981222629547
4090,3595.8462183475494
4091,3596.7152140140533
4092,3597.603209733963
4093,3598.470205307007
4094,3599.3362011909485
4095,3600.206196784973
4096,3601.0841925144196
4097,3601.995187997818
4098,3602.8841836452484
4099,3603.7491793632507
4100,3604.599174976349
4101,3605.4551708698273
4102,3606.3041665554047
4103,3607.1661624908447
4104,3608.0361580848694
4105,3608.9161536693573
4106,3609.807149410248
4107,3610.6641449928284
4108,3611.5401408672333
4109,3612.38813662529
4110,3613.24613237381
4111,3614.0971281528473
4112,3614.9351239204407
4113,3615.7991197109222
4114,3616.6561155319214
4115,3617.5191111564636
4116,3618.400106906891
4117,3619.2501027584076
4118,3620.110098361969
4119,3620.9640941619873
4120,3621.8160898685455
4121,3622.65908575058
4122,3623.500081539154
4123,3624.344077348709
4124,3625.1880733966827
4125,3626.048069000244
4126,3626.9180648326874
4127,3627.799060344696
4128,3628.6740560531616
4129,3629.5340518951416
4130,3630.3630475997925
4131,3631.219043493271
4132,3632.07403922081
4133,3632.93203496933
4134,3633.776030778885
4135,3634.636026620865
4136,3635.523022174835
4137,3636.411017894745
4138,3637.2710134983063
4139,3638.1600091457367
4140,3639.0510046482086
4141,3639.929000377655
4142,3640.7929961681366
4143,3641.6849915981293
4144,3642.585987329483
4145,3643.468982934952
4146,3644.3389785289764
4147,3645.2079741954803
4148,3646.0789699554443
4149,3646.9359657764435
4150,3647.805961370468
4151,3648.6649572849274
4152,3649.542952775955
4153,3650.417948484421
4154,3651.299944162369
4155,3652.1949396133423
4156,3653.084935426712
4157,3653.991930961609
4158,3654.8649265766144
4159,3655.7519221305847
4160,3656.6619176864624
4161,3657.5769131183624
4162,3658.497908592224
4163,3659.3979041576385
4164,3660.2888996601105
4165,3661.1918952465057
4166,3662.1078906059265
4167,3663.018886089325
4168,3663.9338817596436
4169,3664.829877138138
4170,3665.7148728370667
4171,3666.615868330002
4172,3667.542863845825
4173,3668.4698593616486
4174,3669.4038546085358
4175,3670.306850194931
4176,3671.207845687866
4177,3672.112841129303
4178,3673.0238366127014
4179,3673.949832201004
4180,3674.865827560425
4181,3675.8028230667114
4182,3676.6898186206818
4183,3677.5838141441345
4184,3678.471809864044
4185,3679.374805212021
4186,3680.282800912857
4187,3681.1687965393066
4188,3682.069792032242
4189,3682.9547877311707
4190,3683.841783285141
4191,3684.7417788505554
4192,3685.630774497986
4193,3686.494770050049
4194,3687.353765964508
4195,3688.2017617225647
4196,3689.0357575416565
4197,3689.889753341675
4198,3690.743749141693
4199,3691.623744726181
4200,3692.5097403526306
4201,3693.3867359161377
4202,3694.270731687546
4203,3695.127727508545
4204,3695.9647233486176
4205,3696.7817192077637
4206,3697.589715242386
4207,3698.3937113285065
4208,3699.1897072792053
4209,3699.977703332901
4210,3700.7866995334625
4211,3701.599695444107
4212,3702.4316914081573
4213,3703.2726871967316
4214,3704.1406829357147
4215,3705.008678674698
4216,3705.8816742897034
4217,3706.7636699676514
4218,3707.6506655216217
4219,3708.539661169052
4220,3709.4156568050385
4221,3710.312652349472
4222,3711.217647790909
4223,3712.1156435012817
4224,3713.015639066696
4225,3713.906634569168
4226,3714.7906301021576
4227,3715.7026257514954
4228,3716.613621234894
4229,3717.5246167182922
4230,3718.4246122837067
4231,3719.3046078681946
4232,3720.1956033706665
4233,3721.0995988845825
4234,3722.004594564438
4235,3722.9335899353027
4236,3723.870585203171
4237,3724.803580760956
4238,3725.7245762348175
4239,3726.6585714817047
4240,3727.5785670280457
4241,3728.5155622959137
4242,3729.428557872772
4243,3730.3295533657074
4244,3731.237548828125
4245,3732.155544281006
4246,3733.048539876938
4247,3733.8935356140137
4248,3734.7095317840576
4249,3735.5165276527405
4250,3736.269523859024
4251,3737.012520313263
4252,3737.7565166950226
4253,3738.510512828827
4254,3739.2705092430115
4255,3740.031505346298
4256,3740.7935016155243
4257,3741.5664978027344
4258,3742.3174941539764
4259,3743.0614902973175
4260,3743.8234865665436
4261,3744.5894827842712
4262,3745.355479001999
4263,3746.119475364685
4264,3746.882471561432
4265,3747.6494677066803
4266,3748.418463945389
4267,3749.2204599380493
4268,3750.046455860138
4269,3750.912451505661
4270,3751.7624473571777
4271,3752.597443342209
4272,3753.4374389648438
4273,3754.2494349479675
4274,3755.0574309825897
4275,3755.8604271411896
4276,3756.665423154831
4277,3757.4644191265106
4278,3758.2634150981903
4279,3759.0904111862183
4280,3759.927407026291
4281,3760.7884027957916
4282,3761.674398422241
4283,3762.5023941993713
4284,3763.331390142441
4285,3764.175385951996
4286,3765.01638174057
4287,3765.873377561569
4288,3766.73437333107
4289,3767.6213688850403
4290,3768.515364408493
4291,3769.3793601989746
4292,3770.2563560009003
4293,3771.1073517799377
4294,3771.9763474464417
4295,3772.866343021393
4296,3773.7413387298584
4297,3774.5943343639374
4298,3775.4423303604126
4299,3776.3083260059357
4300,3777.209321498871
4301,3778.0923171043396
4302,3778.9743127822876
4303,3779.8483085632324
4304,3780.729304075241
4305,3781.5882999897003
4306,3782.4522955417633
4307,3783.310291290283
4308,3784.1782870292664
4309,3785.0462827682495
4310,3785.9072785377502
4311,3786.7782742977142
4312,3787.658269882202
4313,3788.5592653751373
4314,3789.4372611045837
4315,3790.3072566986084
4316,3791.1912524700165
4317,3792.075248003006
4318,3792.957243680954
4319,3793.847239255905
4320,3794.740234851837
4321,3795.6372303962708
4322,3796.532226085663
4323,3797.4212214946747
4324,3798.297217130661
4325,3799.1502130031586
4326,3800.006208896637
4327,3800.867204427719
4328,3801.744200229645
4329,3802.623195886612
4330,3803.500191450119
4331,3804.3721871376038
4332,3805.2361829280853
4333,3806.084178686142
4334,3806.9321744441986
4335,3807.785170316696
4336,3808.644165992737
4337,3809.487161874771
4338,3810.3081579208374
4339,3811.1011538505554
4340,3811.913149833679
4341,3812.7451457977295
4342,3813.582141637802
4343,3814.3901376724243
4344,3815.2061336040497
4345,3816.0311295986176
4346,3816.882125377655
4347,3817.749120950699
4348,3818.5901169776917
4349,3819.425112724304
4350,3820.2521085739136
4351,3821.0801045894623
4352,3821.9221003055573
4353,3822.777096271515
4354,3823.6090919971466
4355,3824.438087940216
4356,3825.2180840969086
4357,3826.120079755783
4358,3826.952075481415
4359,3827.786071538925
4360,3828.6080672740936
4361,3829.4270632267
4362,3830.238059282303
4363,3831.068055152893
4364,3831.903051137924
4365,3832.7770466804504
4366,3833.6700422763824
4367,3834.547038078308
4368,3835.4230337142944
4369,3836.3050293922424
4370,3837.200024843216
4371,3838.080020427704
4372,3838.9310162067413
4373,3839.7770121097565
4374,3840.6180078983307
4375,3841.961001396179
4376,3843.200995206833
4377,3844.047991037369
4378,3844.879987001419
4379,3845.707982778549
4380,3846.5429787635803
4381,3847.4029743671417
4382,3848.3179697990417
4383,3849.225965499878
4384,3850.1339609622955
4385,3851.057956457138
4386,3851.9479520320892
4387,3852.8689472675323
4388,3853.781942844391
4389,3854.690938472748
4390,3855.564934015274
4391,3856.4179298877716
4392,3857.281925678253
4393,3858.145921230316
4394,3859.0139169692993
4395,3859.8979127407074
4396,3860.7629084587097
4397,3861.652904033661
4398,3862.5468995571136
4399,3863.438895225525
4400,3864.351890563965
4401,3865.2428863048553
4402,3866.1448817253113
4403,3867.0428771972656
4404,3867.9598727226257
4405,3868.8788681030273
4406,3869.7618639469147
4407,3870.637859582901
4408,3871.5118551254272
4409,3872.3918509483337
4410,3873.281846523285
4411,3874.1648421287537
4412,3875.0448377132416
4413,3875.936833381653
4414,3876.848828792572
4415,3877.771824121475
4416,3878.6718196868896
4417,3879.5568153858185
4418,3880.4578108787537
4419,3881.3728065490723
4420,3882.286801815033
4421,3883.1857974529266
4422,3884.0807931423187
4423,3884.956788778305
4424,3885.838784456253
4425,3886.721780061722
4426,3887.6077756881714
4427,3888.515771150589
4428,3889.382766723633
4429,3890.2697625160217
4430,3891.1537580490112
4431,3892.0467536449432
4432,3892.9387493133545
4433,3893.830744743347
4434,3894.7307403087616
4435,3895.619735956192
4436,3896.5117316246033
4437,3897.4117271900177
4438,3898.2837228775024
4439,3899.1657185554504
4440,3900.0457141399384
4441,3900.934709787369
4442,3901.8417053222656
4443,3902.7607007026672
4444,3903.679696083069
4445,3904.56969165802
4446,3905.454687356949
4447,3906.330682992935
4448,3907.1976788043976
4449,3908.051674604416
4450,3908.9196701049805
4451,3909.7936658859253
4452,3910.673661470413
4453,3911.5296573638916
4454,3912.3996529579163
4455,3913.2886486053467
4456,3914.1766443252563
4457,3915.065639734268
4458,3915.966635465622
4459,3916.8646309375763
4460,3917.7566266059875
4461,3918.607622385025
4462,3919.4476182460785
4463,3920.2976138591766
4464,3921.150609731674
4465,3922.0166053771973
4466,3922.8876011371613
4467,3923.7745966911316
4468,3924.633592605591
4469,3925.4915883541107
4470,3926.3445839881897
4471,3927.201579809189
4472,3928.053575515747
4473,3928.886571407318
4474,3929.7105674743652
4475,3930.544563293457
4476,3931.404559135437
4477,3932.2805547714233
4478,3933.163550376892
4479,3934.0385460853577
4480,3934.922541618347
4481,3935.8085372447968
4482,3936.6905329227448
4483,3937.5605285167694
4484,3938.4035243988037
4485,3939.258520126343
4486,3940.1065158843994
4487,3940.934511899948
4488,3941.76850771904
4489,3942.609503507614
4490,3943.4524993896484
4491,3944.294495344162
4492,3945.127491235733
4493,3945.950487136841
4494,3946.7574830055237
4495,3947.5934789180756
4496,3948.43447470665
4497,3949.2874705791473
4498,3950.1204664707184
4499,3950.9614622592926
4500,3951.803458213806
4501,3952.662453889847
4502,3953.506449699402
4503,3954.3484456539154
4504,3955.2244412899017
4505,3956.086436986923
4506,3956.939432859421
4507,3957.754428625107
4508,3958.5554246902466
4509,3959.3834207057953
4510,3960.2484164237976
4511,3961.11141204834
4512,3961.9914078712463
4513,3962.861403465271
4514,3963.7003993988037
4515,3964.5093953609467
4516,3965.3313913345337
4517,3966.136387348175
4518,3966.948383331299
4519,3967.790379047394
4520,3968.620374917984
4521,3969.4243710041046
4522,3970.227366924286
4523,3971.037363052368
4524,3971.8773589134216
4525,3972.718354701996
4526,3973.5363507270813
4527,3974.3473467826843
4528,3975.160342693329
4529,3975.982338666916
4530,3976.812334537506
4531,3977.6493303775787
4532,3978.901324033737
4533,3980.069318294525
4534,3980.8773143291473
4535,3981.679310321808
4536,3982.4833064079285
4537,3983.274302482605
4538,3984.0672986507416
4539,3984.896294593811
4540,3985.785290002823
4541,3986.693285703659
4542,3987.6132810115814
4543,3988.529276609421
4544,3989.397272348404
4545,3990.249268054962
4546,3991.096263885498
4547,3991.9552595615387
4548,3992.8102552890778
4549,3993.632251262665
4550,3994.4442472457886
4551,3995.274243116379
4552,3996.119239091873
4553,3996.962234735489
4554,3997.819230556488
4555,3998.6482264995575
4556,3999.4682223796844
4557,4000.297218322754
4558,4001.1342141628265
4559,4002.001209974289
4560,4002.94620513916
4561,4003.877200603485
4562,4004.7891960144043
4563,4005.687191724777
4564,4006.568187236786
4565,4007.455183029175
4566,4008.3521785736084
4567,4009.233174085617
4568,4010.12916970253
4569,4011.0261652469635
4570,4011.939160823822
4571,4012.843156337738
4572,4013.7181520462036
4573,4014.605147600174
4574,4015.487143278122
4575,4016.378138780594
4576,4017.283134460449
4577,4018.161129951477
4578,4019.030125617981
4579,4019.8991215229034
4580,4020.7871170043945
4581,4021.679112672806
4582,4022.5651082992554
4583,4023.4471039772034
4584,4024.340099334717
4585,4025.2470948696136
4586,4026.1650903224945
4587,4027.064085960388
4588,4027.95508146286
4589,4028.8340771198273
4590,4029.6880729198456
4591,4030.5460686683655
4592,4031.410064458847
4593,4032.2830600738525
4594,4033.1650557518005
4595,4034.0480513572693
4596,4034.9520468711853
4597,4035.837042570114
4598,4036.720038175583
4599,4037.585033893585
4600,4038.432029724121
4601,4039.270025730133
4602,4040.1170213222504
4603,4040.9620172977448
4604,4041.7980132102966
4605,4042.6420090198517
4606,4043.4890048503876
4607,4044.3680005073547
4608,4045.2259962558746
4609,4046.0839920043945
4610,4046.975987434387
4611,4047.860983133316
4612,4048.7219789028168
4613,4049.586974620819
4614,4050.452970266342
4615,4051.329966068268
4616,4052.206961631775
4617,4053.0799572467804
4618,4053.954952955246
4619,4054.839948654175
4620,4055.7099442481995
4621,4056.603940010071
4622,4057.526935338974
4623,4058.4599306583405
4624,4059.3689262866974
4625,4060.2589218616486
4626,4061.1389174461365
4627,4062.0049130916595
4628,4062.8459091186523
4629,4063.691904783249
4630,4064.5699005126953
4631,4065.466896057129
4632,4066.3528916835785
4633,4067.2438871860504
4634,4068.1378829479218
4635,4069.0098786354065
4636,4069.882874250412
4637,4070.76486992836
4638,4071.663865327835
4639,4072.5988607406616
4640,4073.5218563079834
4641,4074.3958518505096
4642,4075.270847558975
4643,4076.1158435344696
4644,4076.9698390960693
4645,4077.8028349876404
4646,4078.6128311157227
4647,4079.4138271808624
4648,4080.218823194504
4649,4081.0178191661835
4650,4081.8348150253296
4651,4082.699810743332
4652,4083.592806339264
4653,4084.4918019771576
4654,4085.369797706604
4655,4086.2217934131622
4656,4087.0737891197205
4657,4087.9207849502563
4658,4088.7747807502747
4659,4089.652776479721
4660,4090.5797719955444
4661,4091.550767183304
4662,4092.5187623500824
4663,4093.502757549286
4664,4094.510752439499
4665,4095.5167474746704
4666,4096.495742559433
4667,4097.473737716675
4668,4098.4167330265045
4669,4099.354728460312
4670,4100.308723688126
4671,4101.292718887329
4672,4102.298713922501
4673,4103.251709222794
4674,4104.230704307556
4675,4105.16069984436
4676,4106.097695112228
4677,4107.04669046402
4678,4108.012685775757
4679,4108.988680839539
4680,4109.956676006317
4681,4110.891671419144
4682,4111.815666913986
4683,4112.753662347794
4684,4113.721657514572
4685,4114.699652671814
4686,4115.695647716522
4687,4116.686642885208
4688,4117.648638010025
4689,4118.57963347435
4690,4119.506628751755
4691,4120.441624164581
4692,4121.388619422913
4693,4122.3136150836945
4694,4123.248610258102
4695,4124.21760559082
4696,4125.193600654602
4697,4126.174595832825
4698,4127.118591308594
4699,4128.070586442947
4700,4129.032581806183
4701,4130.005576848984
4702,4130.987572193146
4703,4131.958567380905
4704,4132.917562484741
4705,4133.855557918549
4706,4134.793553352356
4707,4135.726548671722
4708,4136.640544176102
4709,4137.562539577484
4710,4138.506534814835
4711,4139.452530145645
4712,4140.40952539444
4713,4141.372520685196
4714,4142.347515821457
4715,4143.320511102676
4716,4144.24650645256
4717,4145.170501947403
4718,4146.100497245789
4719,4147.027492761612
4720,4147.928488254547
4721,4148.8174839019775
4722,4149.714479446411
4723,4150.619474887848
4724,4151.557470321655
4725,4152.484465837479
4726,4153.373461484909
4727,4154.241456985474
4728,4155.0994527339935
4729,4155.9594485759735
4730,4156.814444303513
4731,4157.63744020462
4732,4158.435436248779
4733,4159.237432479858
4734,4160.050428390503
4735,4160.883424282074
4736,4161.738420009613
4737,4162.576415777206
4738,4163.39041185379
4739,4164.188407897949
4740,4164.967404127121
4741,4165.7184002399445
4742,4166.476396560669
4743,4167.245392799377
4744,4168.011389017105
4745,4168.803385019302
4746,4169.591381072998
4747,4170.37237739563
4748,4171.146373510361
4749,4171.91636967659
4750,4172.683365821838
4751,4173.448362112045
4752,4174.211358308792
4753,4174.963354587555
4754,4175.7053508758545
4755,4176.450347185135
4756,4177.197343587875
4757,4177.9543397426605
4758,4178.717335939407
4759,4179.496332168579
4760,4180.286328315735
4761,4181.089324235916
4762,4181.878320455551
4763,4182.6503167152405
4764,4183.409312963486
4765,4184.162309169769
4766,4184.9103055000305
4767,4185.658301830292
4768,4186.421298027039
4769,4187.187294244766
4770,4187.964290380478
4771,4188.745286464691
4772,4189.5172827243805
4773,4190.289278745651
4774,4191.076274871826
4775,4191.846271038055
4776,4192.63226723671
4777,4193.459263086319
4778,4194.3232588768005
4779,4195.177254676819
4780,4196.001250505447
4781,4196.822246551514
4782,4197.652242422104
4783,4198.476238250732
4784,4199.295234203339
4785,4200.126230239868
4786,4200.938226222992
4787,4201.752222061157
4788,4202.567218065262
4789,4203.363214254379
4790,4204.167210102081
4791,4204.991206169128
4792,4205.82720208168
4793,4206.664197921753
4794,4207.5211935043335
4795,4208.411189317703
4796,4209.352184534073
4797,4210.3221797943115
4798,4211.28817486763
4799,4212.242170333862
4800,4213.200165510178
4801,4214.148160934448
4802,4215.060156345367
4803,4215.936151981354
4804,4216.877147436142
4805,4217.888142347336
4806,4218.919137239456
4807,4219.965131998062
4808,4220.982126951218
4809,4221.983122110367
4810,4222.909117460251
4811,4223.815113067627
4812,4224.747108459473
4813,4225.719103574753
4814,4226.718098640442
4815,4227.734093666077
4816,4228.758088588715
4817,4229.7380838394165
4818,4230.683079004288
4819,4231.656074285507
4820,4232.640069484711
4821,4233.647064447403
4822,4234.667059421539
4823,4235.695054292679
4824,4236.707049369812
4825,4237.6620445251465
4826,4238.594039916992
4827,4239.562035083771
4828,4240.583030223846
4829,4241.628025054932
4830,4242.680019855499
4831,4243.718014717102
4832,4244.7220096588135
4833,4245.68300485611
4834,4246.63100028038
4835,4247.597995519638
4836,4248.600990533829
4837,4249.640985250473
4838,4250.674980163574
4839,4251.703975200653
4840,4252.716970205307
4841,4253.694965362549
4842,4254.659960508347
4843,4255.64395570755
4844,4256.648950576782
4845,4257.67294549942
4846,4258.688940525055
4847,4259.714935541153
4848,4260.729930400848
4849,4261.687925815582
4850,4262.641921043396
4851,4263.613916158676
4852,4264.615911245346
4853,4265.651906251907
4854,4266.693901062012
4855,4267.721895933151
4856,4268.703891038895
4857,4269.694886207581
4858,4270.671881437302
4859,4271.666876316071
4860,4272.661871433258
4861,4273.648866653442
4862,4274.608861923218
4863,4275.5848569869995
4864,4276.582852125168
4865,4277.608847141266
4866,4278.640841960907
4867,4279.660836935043
4868,4280.658831834793
4869,4281.625827074051
4870,4282.602822303772
4871,4283.609817266464
4872,4284.620812416077
4873,4285.645807266235
4874,4286.672802209854
4875,4287.66379737854
4876,4288.611792564392
4877,4289.551787853241
4878,4290.520783185959
4879,4291.538778066635
4880,4292.588773012161
4881,4293.658767700195
4882,4294.695762634277
4883,4295.710757493973
4884,4296.680752754211
4885,4297.6687479019165
4886,4298.663743019104
4887,4299.667737960815
4888,4300.68173289299
4889,4301.699728012085
4890,4302.693722963333
4891,4303.65771818161
4892,4304.618713378906
4893,4305.571708679199
4894,4306.5477039813995
4895,4307.554698944092
4896,4308.5686938762665
4897,4309.549689054489
4898,4310.463684558868
4899,4311.385679960251
4900,4312.309675455093
4901,4313.261670827866
4902,4314.24666595459
4903,4315.226660966873
4904,4316.211656093597
4905,4317.169651508331
4906,4318.110646724701
4907,4319.053642034531
4908,4320.017637252808
4909,4320.991632461548
4910,4321.980627536774
4911,4322.995622634888
4912,4323.988617658615
4913,4324.9596128463745
4914,4325.89160823822
4915,4326.835603713989
4916,4327.801598787308
4917,4328.800593852997
4918,4329.830588817596
4919,4330.833583831787
4920,4331.806579113007
4921,4332.7355744838715
4922,4333.658569812775
4923,4334.566565275192
4924,4335.4505610466
4925,4336.290556907654
4926,4337.118552684784
4927,4338.411546468735
4928,4339.53754067421
4929,4340.354536771774
4930,4341.155532836914
4931,4341.985528707504
4932,4342.822524547577
4933,4343.687520265579
4934,4344.5525159835815
4935,4345.40451169014
4936,4346.283507347107
4937,4347.178503036499
4938,4348.087498426437
4939,4349.025493860245
4940,4349.95648932457
4941,4350.898484706879
4942,4351.821480035782
4943,4352.757475376129
4944,4353.701470851898
4945,4354.690465927124
4946,4355.717460870743
4947,4356.733455657959
4948,4357.721450805664
4949,4358.673446178436
4950,4359.628441333771
4951,4360.575436830521
4952,4361.545431852341
4953,4362.54842710495
4954,4363.545422077179
4955,4364.512417316437
4956,4365.472412586212
4957,4366.428407907486
4958,4367.377403020859
4959,4368.347398281097
4960,4369.322393417358
4961,4370.287388801575
4962,4371.24338388443
4963,4372.179379463196
4964,4373.129374742508
4965,4374.10736989975
4966,4375.095365047455
4967,4376.0873601436615
4968,4377.064355134964
4969,4378.033350467682
4970,4378.947345972061
4971,4379.836341619492
4972,4380.711337089539
4973,4381.599332809448
4974,4382.507328271866
4975,4383.443323612213
4976,4384.416318893433
4977,4385.402313947678
4978,4386.369309186935
4979,4387.3243045806885
4980,4388.289299726486
4981,4389.2852947711945
4982,4390.288289785385
4983,4391.303284883499
4984,4392.299279928207
4985,4393.254275083542
4986,4394.201270580292
4987,4395.153265714645
4988,4396.144260883331
4989,4397.145255804062
4990,4398.141251087189
4991,4399.093246221542
4992,4400.00524187088
4993,4400.882237434387
4994,4401.77623295784
4995,4402.699228525162
4996,4403.670223712921
4997,4404.663218736649
4998,4405.657213926315
4999,4406.627208948135
5000,4407.56020450592
5001,4408.486199855804
5002,4409.429195165634
5003,4410.377190589905
5004,4411.345185756683
5005,4412.319180965424
5006,4413.261176109314
5007,4414.19517159462
5008,4415.14116692543
5009,4416.117161989212
5010,4417.087157249451
5011,4418.018152713776
5012,4418.902148246765
5013,4419.80214381218
5014,4420.730139255524
5015,4421.683134555817
5016,4422.668129682541
5017,4423.652124881744
5018,4424.638119935989
5019,4425.631114959717
5020,4426.570110321045
5021,4427.486105918884
5022,4428.451101064682
5023,4429.406096458435
5024,4430.371091604233
5025,4431.33508682251
5026,4432.301082134247
5027,4433.255077362061
5028,4434.190072774887
5029,4435.083068370819
5030,4435.990063905716
5031,4436.900059223175
5032,4437.8310546875
5033,4438.775050163269
5034,4439.7190454006195
5035,4440.685040712357
5036,4441.63903594017
5037,4442.558031320572
5038,4443.504026651382
5039,4444.4730219841
5040,4445.463016986847
5041,4446.439012050629
5042,4447.41600728035
5043,4448.337002754211
5044,4449.223998308182
5045,4450.098994016647
5046,4450.949989795685
5047,4451.79398560524
5048,4452.6199815273285
5049,4453.477977275848
5050,4454.298973321915
5051,4455.106969356537
5052,4455.939965248108
5053,4456.772961139679
5054,4457.594956874847
5055,4458.437952756882
5056,4459.268948793411
5057,4460.097944498062
5058,4460.898940563202
5059,4461.69593667984
5060,4462.487932682037
5061,4463.29892873764
5062,4464.085924863815
5063,4464.878921031952
5064,4465.707916975021
5065,4466.567912578583
5066,4467.432908296585
5067,4468.285904169083
5068,4469.179899692535
5069,4470.112895011902
5070,4471.094890117645
5071,4472.085885286331
5072,4473.087880373001
5073,4474.048875570297
5074,4475.002870798111
5075,4476.000865936279
5076,4477.028860807419
5077,4478.058855772018
5078,4479.0578508377075
5079,4480.023846149445
5080,4481.003841161728
5081,4481.992836236954
5082,4483.007831335068
5083,4484.046826124191
5084,4485.068821191788
5085,4486.031816244125
5086,4487.035811424255
5087,4488.053806304932
5088,4489.073801279068
5089,4490.0907962322235
5090,4491.085791349411
5091,4492.063786506653
5092,4493.069781541824
5093,4494.071776628494
5094,4495.09077167511
5095,4496.087766647339
5096,4497.058761835098
5097,4498.068756818771
5098,4499.119751691818
5099,4500.147746562958
5100,4501.205741405487
5101,4502.196736335754
5102,4503.1647317409515
5103,4504.13072681427
5104,4505.108721971512
5105,4506.088717222214
5106,4507.057712316513
5107,4508.02370762825
5108,4508.979702949524
5109,4509.93869805336
5110,4510.894693374634
5111,4511.840688705444
5112,4512.784684181213
5113,4513.7566792964935
5114,4514.736674308777
5115,4515.707669496536
5116,4516.679664850235
5117,4517.6966598033905
5118,4518.713654756546
5119,4519.717649698257
5120,4520.690644979477
5121,4521.684640169144
5122,4522.681635141373
5123,4523.697630167007
5124,4524.70662522316
5125,4525.73361992836
5126,4526.761615037918
5127,4527.751610040665
5128,4528.727605342865
5129,4529.71160030365
5130,4530.701595544815
5131,4531.673590660095
5132,4532.636585950851
5133,4533.637580871582
5134,4534.642575979233
5135,4535.633571147919
5136,4536.598566293716
5137,4537.593561410904
5138,4538.589556455612
5139,4539.603551387787
5140,4540.61354637146
5141,4541.573541641235
5142,4542.580536842346
5143,4543.6095316410065
5144,4544.632526636124
5145,4545.656521558762
5146,4546.656516551971
5147,4547.6535115242
5148,4548.645506620407
5149,4549.664501667023
5150,4550.6914966106415
5151,4551.691491603851
5152,4552.682486772537
5153,4553.714481592178
5154,4554.756476402283
5155,4555.770471572876
5156,4556.729466676712
5157,4557.6914620399475
5158,4558.648457288742
5159,4559.58745265007
5160,4560.495448112488
5161,4561.440443515778
5162,4562.385438680649
5163,4563.341434001923
5164,4564.302429199219
5165,4565.256424665451
5166,4566.212419748306
5167,4567.158415079117
5168,4568.107410430908
