,ECG_peaks
0,0.0
1,0.8170053958892822
2,1.6400105953216553
3,2.490016222000122
4,3.325021743774414
5,4.141026973724365
6,4.971032381057739
7,5.812037706375122
8,6.636043071746826
9,7.480048656463623
10,8.35405445098877
11,9.221060037612915
12,10.062065362930298
13,10.899070978164673
14,11.74307632446289
15,12.579081773757935
16,13.403087139129639
17,14.25509262084961
18,15.120098352432251
19,15.969103813171387
20,16.819109439849854
21,17.68111491203308
22,18.5321204662323
23,19.34212565422058
24,20.1621310710907
25,20.965136289596558
26,21.741141319274902
27,22.54414653778076
28,23.32815170288086
29,24.1261568069458
30,24.921162128448486
31,25.713167190551758
32,26.520172357559204
33,27.31017756462097
34,28.104182720184326
35,28.89118790626526
36,29.657192707061768
37,30.43819785118103
38,31.225203037261963
39,31.99620795249939
40,32.761213064193726
41,33.534218072891235
42,34.31622314453125
43,35.1012282371521
44,35.8942334651947
45,36.68923854827881
46,37.50124382972717
47,38.299248933792114
48,39.097254276275635
49,39.902259349823
50,40.71526479721069
51,41.52427005767822
52,42.317275047302246
53,43.113280296325684
54,43.92728567123413
55,44.751291036605835
56,45.56429624557495
57,46.39330172538757
58,47.24230718612671
59,48.067312479019165
60,48.90931797027588
61,49.7693235874176
62,50.62432909011841
63,51.47233462333679
64,52.308340072631836
65,53.16934561729431
66,54.00835108757019
67,54.838356494903564
68,55.65236186981201
69,56.458367109298706
70,57.272372245788574
71,58.1103777885437
72,58.97338342666626
73,59.84838914871216
74,60.70139455795288
75,61.57840037345886
76,62.45340609550476
77,63.31641173362732
78,64.17141723632812
79,65.03942275047302
80,65.8784282207489
81,66.71643376350403
82,67.56043910980225
83,68.39344453811646
84,69.19344973564148
85,70.0004551410675
86,70.81746029853821
87,71.64846587181091
88,72.4894711971283
89,73.31447672843933
90,74.1444821357727
91,74.990487575531
92,75.83449292182922
93,76.67949843406677
94,77.49850392341614
95,78.33350920677185
96,79.14651441574097
97,79.95851969718933
98,80.76852512359619
99,81.56453013420105
100,82.38253545761108
101,83.22054100036621
102,84.04254627227783
103,84.84755158424377
104,85.6565568447113
105,86.46656203269958
106,87.27156734466553
107,88.0705726146698
108,88.87457776069641
109,89.69658303260803
110,90.51158833503723
111,91.34259390830994
112,92.17859935760498
113,93.0226047039032
114,93.87361025810242
115,94.72861576080322
116,95.58462142944336
117,96.42862677574158
118,97.24663209915161
119,98.06463742256165
120,98.8676426410675
121,99.65064787864685
122,100.42565298080444
123,101.20965790748596
124,101.99466300010681
125,102.76266813278198
126,103.55067324638367
127,104.34567832946777
128,105.14768362045288
129,105.94968867301941
130,106.77469420433044
131,107.59369945526123
132,108.39970469474792
133,109.21170997619629
134,110.00771522521973
135,110.799720287323
136,111.57872533798218
137,112.35573053359985
138,113.1337354183197
139,113.90474057197571
140,114.67674541473389
141,115.43475031852722
142,116.20075535774231
143,116.96476030349731
144,117.72676539421082
145,118.49177026748657
146,119.25277519226074
147,120.02878022193909
148,120.82178544998169
149,121.62079071998596
150,122.43279600143433
151,123.25480127334595
152,124.04480648040771
153,124.82781147956848
154,125.62681674957275
155,126.42382192611694
156,127.19682693481445
157,127.96483182907104
158,128.7238368988037
159,129.47684168815613
160,130.24284672737122
161,131.01685166358948
162,131.79585671424866
163,132.5808618068695
164,133.3758671283722
165,134.17287230491638
166,134.97587752342224
167,135.7718825340271
168,136.58188796043396
169,137.399893283844
170,138.2418987751007
171,139.06790399551392
172,139.88290929794312
173,140.71891474723816
174,141.5549201965332
175,142.3829255104065
176,143.21493101119995
177,144.0469365119934
178,144.87294173240662
179,145.6789469718933
180,146.491952419281
181,147.30995774269104
182,148.11996293067932
183,148.92296814918518
184,149.74597358703613
185,150.56297874450684
186,151.35598397254944
187,152.14898920059204
188,152.93899416923523
189,153.73499941825867
190,154.52000451087952
191,155.32300972938538
192,156.14001512527466
193,156.94502019882202
194,157.74602556228638
195,158.5460307598114
196,159.35703587532043
197,160.1470410823822
198,160.9510462284088
199,161.7640516757965
200,162.5740568637848
201,163.36606192588806
202,164.15906715393066
203,164.96507239341736
204,165.75707745552063
205,166.54208254814148
206,167.3530879020691
207,168.18109321594238
208,168.9900984764099
209,169.7941038608551
210,170.6001091003418
211,171.38111400604248
212,172.16011929512024
213,172.94612431526184
214,173.7291293144226
215,174.5081343650818
216,175.29613947868347
217,176.10614490509033
218,176.90514993667603
219,177.6841549873352
220,178.46916007995605
221,179.25116539001465
222,180.01717019081116
223,180.77917528152466
224,181.548180103302
225,182.32618522644043
226,183.08919024467468
227,183.84419512748718
228,184.6172001361847
229,185.39820528030396
230,186.18621039390564
231,186.97421550750732
232,187.76122069358826
233,188.55722570419312
234,189.3542308807373
235,190.13523602485657
236,190.91624116897583
237,191.69624614715576
238,192.44725108146667
239,193.19725584983826
240,193.9642608165741
241,194.73326587677002
242,195.49527096748352
243,196.25227570533752
244,197.01228070259094
245,197.79028582572937
246,198.56029081344604
247,199.34429597854614
248,200.1363010406494
249,200.90830612182617
250,201.66731095314026
251,202.4323160648346
252,203.2053210735321
253,203.9823260307312
254,204.75633096694946
255,205.53833627700806
256,206.33134126663208
257,207.10834646224976
258,207.8753514289856
259,208.64235639572144
260,209.40836143493652
261,210.16536617279053
262,210.92537117004395
263,211.68537616729736
264,212.43538093566895
265,213.18438577651978
266,213.9493908882141
267,214.72039580345154
268,215.4814007282257
269,216.2364056110382
270,216.99741077423096
271,217.75641560554504
272,218.5174205303192
273,219.26042532920837
274,220.0004301071167
275,220.74543499946594
276,221.51044011116028
277,222.26544499397278
278,223.0494499206543
279,223.84445524215698
280,224.62746024131775
281,225.401465177536
282,226.18047046661377
283,226.95647549629211
284,227.7354805469513
285,228.50648546218872
286,229.27049040794373
287,230.04349541664124
288,230.81450057029724
289,231.58650541305542
290,232.36451053619385
291,233.14451551437378
292,233.9245207309723
293,234.70352578163147
294,235.48053073883057
295,236.26853585243225
296,237.0445408821106
297,237.8175458908081
298,238.5995512008667
299,239.38355612754822
300,240.1585612297058
301,240.93456625938416
302,241.71757125854492
303,242.50057649612427
304,243.2915816307068
305,244.07558679580688
306,244.84959173202515
307,245.6055965423584
308,246.3716015815735
309,247.14560675621033
310,247.92961168289185
311,248.7106168270111
312,249.49262189865112
313,250.29262709617615
314,251.09463238716125
315,251.88563752174377
316,252.68164253234863
317,253.47464776039124
318,254.2426528930664
319,255.02465796470642
320,255.81066298484802
321,256.59766817092896
322,257.38767313957214
323,258.197678565979
324,259.0106837749481
325,259.8126890659332
326,260.61069416999817
327,261.40769934654236
328,262.20270442962646
329,262.98870968818665
330,263.75771474838257
331,264.52971959114075
332,265.29872465133667
333,266.0547294616699
334,266.82173466682434
335,267.61473965644836
336,268.4197449684143
337,269.2097501754761
338,270.0027551651001
339,270.80376052856445
340,271.58476543426514
341,272.3707706928253
342,273.1627757549286
343,273.9557809829712
344,274.7367858886719
345,275.5257911682129
346,276.31779623031616
347,277.10380148887634
348,277.884806394577
349,278.6638114452362
350,279.4458165168762
351,280.2398216724396
352,281.04082703590393
353,281.8148319721222
354,282.5878369808197
355,283.36184215545654
356,284.1448471546173
357,284.92985224723816
358,285.73385739326477
359,286.54586267471313
360,287.34586787223816
361,288.1508731842041
362,288.9498784542084
363,289.7248833179474
364,290.4868884086609
365,291.2488932609558
366,292.00989818573
367,292.76890325546265
368,293.53690814971924
369,294.30991315841675
370,295.0859181880951
371,295.854923248291
372,296.6409285068512
373,297.4409337043762
374,298.2399387359619
375,299.0189437866211
376,299.7979488372803
377,300.5709538459778
378,301.34295892715454
379,302.0879638195038
380,302.79796838760376
381,303.47997283935547
382,304.13697719573975
383,304.7929813861847
384,305.43798565864563
385,306.0659897327423
386,306.6899936199188
387,307.3229978084564
388,307.9620020389557
389,308.6080062389374
390,309.2500102519989
391,309.89301443099976
392,310.51901865005493
393,311.13202261924744
394,311.73402643203735
395,312.3390305042267
396,312.9540343284607
397,313.57503843307495
398,314.1980426311493
399,314.8350467681885
400,315.46505069732666
401,316.10905504226685
402,316.78605937957764
403,317.46106362342834
404,318.1220679283142
405,318.77207231521606
406,319.46707677841187
407,320.16908144950867
408,320.8530857563019
409,321.5400903224945
410,322.2390947341919
411,322.94209933280945
412,323.6471040248871
413,324.3531086444855
414,325.06111311912537
415,325.7751178741455
416,326.4901223182678
417,327.2161271572113
418,327.9461319446564
419,328.6861367225647
420,329.4271414279938
421,330.154146194458
422,330.8801510334015
423,331.61815571784973
424,332.34716057777405
425,333.0831654071808
426,333.81916999816895
427,334.56317496299744
428,335.313179731369
429,336.0521845817566
430,336.7901895046234
431,337.5351941585541
432,338.27619910240173
433,339.0352039337158
434,339.80920910835266
435,340.5832140445709
436,341.36321902275085
437,342.14922428131104
438,342.92922925949097
439,343.7122344970703
440,344.49223947525024
441,345.264244556427
442,346.05124950408936
443,346.8382546901703
444,347.62325978279114
445,348.41226506233215
446,349.19326996803284
447,349.9852752685547
448,350.7742803096771
449,351.56328535079956
450,352.3452904224396
451,353.1292955875397
452,353.9223008155823
453,354.70530581474304
454,355.5133111476898
455,356.31531620025635
456,357.10632157325745
457,357.8853266239166
458,358.65133142471313
459,359.4343366622925
460,360.2233417034149
461,361.0153467655182
462,361.8243520259857
463,362.6173572540283
464,363.4193625450134
465,364.22336769104004
466,365.0303728580475
467,365.846378326416
468,366.67538356781006
469,367.51238918304443
470,368.3353943824768
471,369.14439964294434
472,369.95540499687195
473,370.78441047668457
474,371.58941555023193
475,372.40042090415955
476,373.21542620658875
477,374.03443145751953
478,374.86743688583374
479,375.7034423351288
480,376.5394477844238
481,377.37945318222046
482,378.20945858955383
483,379.03846406936646
484,379.883469581604
485,380.72647500038147
486,381.5444803237915
487,382.38248586654663
488,383.2014911174774
489,383.99449634552
490,384.76150131225586
491,385.50050592422485
492,386.2455108165741
493,387.00351572036743
494,387.7535207271576
495,388.52952575683594
496,389.3035306930542
497,390.0825357437134
498,390.8585407733917
499,391.62754583358765
500,392.3795506954193
501,393.1005554199219
502,393.81055998802185
503,394.55656480789185
504,395.3265700340271
505,396.10657501220703
506,396.9125802516937
507,397.75058579444885
508,398.57159090042114
509,399.3725962638855
510,400.1806013584137
511,401.00860691070557
512,401.82361221313477
513,402.6146173477173
514,403.41962242126465
515,404.2656280994415
516,405.09863352775574
517,405.92063879966736
518,406.76464438438416
519,407.61064982414246
520,408.4236550331116
521,409.248660326004
522,410.10866594314575
523,410.95067143440247
524,411.7886769771576
525,412.6436824798584
526,413.5006880760193
527,414.3296935558319
528,415.17169880867004
529,416.0257043838501
530,416.87270998954773
531,417.6987154483795
532,418.5177206993103
533,419.32672595977783
534,420.0927309989929
535,420.8627359867096
536,421.6617410182953
537,422.485746383667
538,423.31275177001953
539,424.16875743865967
540,425.0357630252838
541,425.8817684650421
542,426.72877407073975
543,427.58577966690063
544,428.4377851486206
545,429.27779054641724
546,430.12879610061646
547,430.9798016548157
548,431.8108069896698
549,432.66281270980835
550,433.5158181190491
551,434.3388235569
552,435.1448287963867
553,435.9708340167999
554,436.81283950805664
555,437.64784502983093
556,438.47885036468506
557,439.3278560638428
558,440.19286155700684
559,441.0158669948578
560,441.8468723297119
561,442.73187804222107
562,443.6318838596344
563,444.4898896217346
564,445.3598952293396
565,446.22690081596375
566,447.07290625572205
567,447.9179117679596
568,448.7729172706604
569,449.62492299079895
570,450.45992827415466
571,451.3019337654114
572,452.1469392776489
573,452.9719445705414
574,453.7919499874115
575,454.64595556259155
576,455.5309612751007
577,456.4039669036865
578,457.26597261428833
579,458.14797830581665
580,459.02698397636414
581,459.8679895401001
582,460.73899507522583
583,461.60100078582764
584,462.431006193161
585,463.2740116119385
586,464.1230170726776
587,464.9820227622986
588,465.841028213501
589,466.71803402900696
590,467.60803985595703
591,468.46804547309875
592,469.31005096435547
593,470.16205644607544
594,471.02406191825867
595,471.87206745147705
596,472.7240731716156
597,473.58907866477966
598,474.4310841560364
599,475.26308965682983
600,476.1060950756073
601,476.95110058784485
602,477.7781059741974
603,478.62111139297485
604,479.45811676979065
605,480.29812240600586
606,481.14412784576416
607,481.99413323402405
608,482.84513878822327
609,483.66614413261414
610,484.49014949798584
611,485.3221549987793
612,486.164160490036
613,487.0051658153534
614,487.8401713371277
615,488.67217683792114
616,489.4921820163727
617,490.3121874332428
618,491.1361927986145
619,491.96119809150696
620,492.7502031326294
621,493.5392084121704
622,494.32821345329285
623,495.08521842956543
624,495.8132231235504
625,496.5642280578613
626,497.35123324394226
627,498.1472382545471
628,498.9882438182831
629,499.88024950027466
630,500.8032555580139
631,501.65926122665405
632,502.5222668647766
633,503.39127230644226
634,504.23727798461914
635,505.0492832660675
636,505.8752884864807
637,506.71329402923584
638,507.5292992591858
639,508.34130454063416
640,509.1773099899292
641,510.02231550216675
642,510.8603210449219
643,511.7063264846802
644,512.5753321647644
645,513.4453377723694
646,514.2813432216644
647,515.1293487548828
648,515.9823541641235
649,516.8123595714569
650,517.6363649368286
651,518.4873704910278
652,519.3413760662079
653,520.1983816623688
654,521.0523872375488
655,521.9093928337097
656,522.7263979911804
657,523.553403377533
658,524.3904089927673
659,525.2294144630432
660,526.0444197654724
661,526.8834252357483
662,527.7244305610657
663,528.5574359893799
664,529.3804414272308
665,530.213446855545
666,531.0604522228241
667,531.8854577541351
668,532.7134630680084
669,533.5484683513641
670,534.3774738311768
671,535.2144792079926
672,536.0574848651886
673,536.9054901599884
674,537.7154955863953
675,538.5085008144379
676,539.3385059833527
677,540.1725115776062
678,541.0155169963837
679,541.8425223827362
680,542.6935279369354
681,543.574533700943
682,544.4695394039154
683,545.3305449485779
684,546.1935505867004
685,547.0805563926697
686,547.9585621356964
687,548.8045675754547
688,549.6535730361938
689,550.5165786743164
690,551.3585841655731
691,552.1805896759033
692,553.0345950126648
693,553.8956007957458
694,554.7186059951782
695,555.5376114845276
696,556.3656167984009
697,557.2246222496033
698,558.0686278343201
699,558.938633441925
700,559.851639509201
701,560.7336452007294
702,561.5876507759094
703,562.4566564559937
704,563.302661895752
705,564.1196672916412
706,564.9456725120544
707,565.7946779727936
708,566.6386835575104
709,567.467689037323
710,568.3106944561005
711,569.1807000637054
712,570.0187056064606
713,570.8527109622955
714,571.7117166519165
715,572.5877223014832
716,573.426727771759
717,574.2697331905365
718,575.1217386722565
719,575.9647440910339
720,576.7917494773865
721,577.6267549991608
722,578.4787604808807
723,579.3257660865784
724,580.1487712860107
725,580.9947769641876
726,581.8517825603485
727,582.7087879180908
728,583.5607936382294
729,584.4347991943359
730,585.3318049907684
731,586.1998107433319
732,587.0608162879944
733,587.9218218326569
734,588.7718274593353
735,589.6068329811096
736,590.4568383693695
737,591.3118438720703
738,592.1678495407104
739,593.0028550624847
740,593.8558604717255
741,594.7248661518097
742,595.5738716125488
743,596.4078769683838
744,597.2538826465607
745,598.101888179779
746,598.9308934211731
747,599.7748990058899
748,600.62890458107
749,601.4519097805023
750,602.2869153022766
751,603.1489210128784
752,604.0269265174866
753,604.89293217659
754,605.7709379196167
755,606.6679437160492
756,607.5419495105743
757,608.4109551906586
758,609.2989609241486
759,610.182966709137
760,611.0449721813202
761,611.9139778614044
762,612.7879836559296
763,613.6529891490936
764,614.5109946727753
765,615.4060006141663
766,616.2930064201355
767,617.1460118293762
768,618.0120174884796
769,618.8850231170654
770,619.7440288066864
771,620.584034204483
772,621.4440398216248
773,622.3060455322266
774,623.1520509719849
775,624.0150566101074
776,624.9060623645782
777,625.7970681190491
778,626.6690738201141
779,627.555079460144
780,628.4520854949951
781,629.3210909366608
782,630.1860966682434
783,631.0681023597717
784,631.9471080303192
785,632.7941136360168
786,633.6361191272736
787,634.4921245574951
788,635.3541302680969
789,636.2021358013153
790,637.0681414604187
791,637.9331469535828
792,638.7541522979736
793,639.5571575164795
794,640.3681628704071
795,641.2081682682037
796,642.0011734962463
797,642.7611784934998
798,643.5291833877563
799,644.3301885128021
800,645.1271936893463
801,645.9311990737915
802,646.7612044811249
803,647.6072099208832
804,648.4672155380249
805,649.296220779419
806,650.1182262897491
807,650.9652316570282
808,651.8262374401093
809,652.6962430477142
810,653.5422484874725
811,654.3892540931702
812,655.2672595977783
813,656.1572654247284
814,657.0172710418701
815,657.8842766284943
816,658.7522823810577
817,659.6432881355286
818,660.5342938899994
819,661.4182996749878
820,662.3163056373596
821,663.2083113193512
822,664.0693168640137
823,664.9353225231171
824,665.8023281097412
825,666.6973340511322
826,667.5813398361206
827,668.4273452758789
828,669.2663507461548
829,670.1183562278748
830,670.9833619594574
831,671.8563675880432
832,672.7303731441498
833,673.6233789920807
834,674.5213849544525
835,675.3713903427124
836,676.2123959064484
837,677.0614013671875
838,677.9284069538116
839,678.8144128322601
840,679.6804184913635
841,680.5094237327576
842,681.3434293270111
843,682.1694345474243
844,683.0104401111603
845,683.8304452896118
846,684.6624507904053
847,685.5284564495087
848,686.4124622344971
849,687.264467716217
850,688.1184732913971
851,688.9954788684845
852,689.8834848403931
853,690.7474904060364
854,691.6094958782196
855,692.4835016727448
856,693.3505072593689
857,694.2025127410889
858,695.0575184822083
859,695.9325239658356
860,696.8075296878815
861,697.6645352840424
862,698.529541015625
863,699.3945465087891
864,700.2785522937775
865,701.1345579624176
866,701.9835634231567
867,702.8465690612793
868,703.7185747623444
869,704.5775802135468
870,705.4085855484009
871,706.2555911540985
872,707.1175968647003
873,707.9666023254395
874,708.8026077747345
875,709.6366131305695
876,710.4796185493469
877,711.3206241130829
878,712.1466295719147
879,712.9836349487305
880,713.8406405448914
881,714.6786458492279
882,715.4926512241364
883,716.3296566009521
884,717.1706621646881
885,717.9966673851013
886,718.8226728439331
887,719.6596782207489
888,720.5106837749481
889,721.3556892871857
890,722.1826946735382
891,723.0147001743317
892,723.8837058544159
893,724.7407114505768
894,725.5857167243958
895,726.425722360611
896,727.2707278728485
897,728.1147332191467
898,728.9567387104034
899,729.7947442531586
900,730.6397497653961
901,731.496755361557
902,732.3537607192993
903,733.1977663040161
904,734.0427718162537
905,734.8967773914337
906,735.7367827892303
907,736.5677881240845
908,737.4117937088013
909,738.2627992630005
910,739.100804567337
911,739.9428100585938
912,740.800815820694
913,741.6698215007782
914,742.5228269100189
915,743.3708324432373
916,744.2148380279541
917,745.082843542099
918,745.9318490028381
919,746.7688546180725
920,747.6218600273132
921,748.49986577034
922,749.3508713245392
923,750.1778767108917
924,751.0038821697235
925,751.8368873596191
926,752.6718928813934
927,753.5118982791901
928,754.3499038219452
929,755.1989092826843
930,756.0419147014618
931,756.8789203166962
932,757.7139256000519
933,758.5479311943054
934,759.4079368114471
935,760.2589421272278
936,761.1159477233887
937,761.9719533920288
938,762.8599591255188
939,763.744964838028
940,764.6059703826904
941,765.4589760303497
942,766.3249816894531
943,767.1759872436523
944,768.0209927558899
945,768.8639981746674
946,769.7060036659241
947,770.5550091266632
948,771.3840146064758
949,772.210019826889
950,773.0390253067017
951,773.8710308074951
952,774.6930360794067
953,775.5290415287018
954,776.3710470199585
955,777.2360525131226
956,778.1100583076477
957,778.9730639457703
958,779.8300695419312
959,780.6880750656128
960,781.5540807247162
961,782.3970861434937
962,783.2120914459229
963,784.0210967063904
964,784.8571021556854
965,785.6821074485779
966,786.5031127929688
967,787.3251180648804
968,788.1581234931946
969,789.0191292762756
970,789.867134809494
971,790.7141401767731
972,791.566145658493
973,792.4381513595581
974,793.2901568412781
975,794.136162519455
976,794.9871680736542
977,795.8291735649109
978,796.6631789207458
979,797.4901843070984
980,798.3221895694733
981,799.1561951637268
982,799.989200592041
983,800.8272058963776
984,801.6862115859985
985,802.5282170772552
986,803.3732225894928
987,804.2252280712128
988,805.0782334804535
989,805.9202389717102
990,806.7682445049286
991,807.5972499847412
992,808.4192552566528
993,809.2402606010437
994,810.0622658729553
995,810.891271352768
996,811.7172768115997
997,812.5302820205688
998,813.3392872810364
999,814.1472926139832
1000,814.9582977294922
1001,815.7693030834198
1002,816.6113085746765
1003,817.4733140468597
1004,818.3213195800781
1005,819.1893253326416
1006,820.0423307418823
1007,820.8933362960815
1008,821.7303419113159
1009,822.5563471317291
1010,823.3643524646759
1011,824.1683576107025
1012,824.9683628082275
1013,825.7913682460785
1014,826.6113736629486
1015,827.441379070282
1016,828.2853844165802
1017,829.1333899497986
1018,829.9723954200745
1019,830.8034007549286
1020,831.6374063491821
1021,832.4574115276337
1022,833.2794167995453
1023,834.103422164917
1024,834.9324276447296
1025,835.7594330310822
1026,836.580438375473
1027,837.4114437103271
1028,838.2674493789673
1029,839.1154549121857
1030,839.9534602165222
1031,840.7894656658173
1032,841.6164710521698
1033,842.4374763965607
1034,843.2634818553925
1035,844.0854871273041
1036,844.9024925231934
1037,845.7234978675842
1038,846.5495030879974
1039,847.3915085792542
1040,848.2255141735077
1041,849.0435194969177
1042,849.8685247898102
1043,850.6885299682617
1044,851.5125353336334
1045,852.339540719986
1046,853.1615462303162
1047,853.9815514087677
1048,854.8005568981171
1049,855.6215622425079
1050,856.450567483902
1051,857.2955729961395
1052,858.109578371048
1053,858.8945834636688
1054,859.7115886211395
1055,860.520593881607
1056,861.3365993499756
1057,862.1526045799255
1058,862.9706099033356
1059,863.7856152057648
1060,864.5906205177307
1061,865.3916256427765
1062,866.1936309337616
1063,866.9996361732483
1064,867.7966413497925
1065,868.6036465167999
1066,869.4226517677307
1067,870.2326571941376
1068,871.039662361145
1069,871.8226673603058
1070,872.5956726074219
1071,873.36767745018
1072,874.1306824684143
1073,874.8996875286102
1074,875.6776924133301
1075,876.4576976299286
1076,877.2337026596069
1077,878.0087077617645
1078,878.7897126674652
1079,879.5867178440094
1080,880.3727231025696
1081,881.1507279872894
1082,881.9297332763672
1083,882.7177383899689
1084,883.496743440628
1085,884.2687482833862
1086,885.0487534999847
1087,885.8377585411072
1088,886.6317636966705
1089,887.4157688617706
1090,888.2047739028931
1091,889.0007791519165
1092,889.8187844753265
1093,890.6337897777557
1094,891.4487950801849
1095,892.261800289154
1096,893.0908057689667
1097,893.9128110408783
1098,894.7398164272308
1099,895.559821844101
1100,896.3758270740509
1101,897.1848323345184
1102,897.9898376464844
1103,898.7898428440094
1104,899.5978479385376
1105,900.4178533554077
1106,901.2318587303162
1107,902.0478639602661
1108,902.8558692932129
1109,903.6658744812012
1110,904.4728796482086
1111,905.2748849391937
1112,906.0818901062012
1113,906.8938953876495
1114,907.6949007511139
1115,908.4939057826996
1116,909.2909109592438
1117,910.0929162502289
1118,910.9079215526581
1119,911.730926990509
1120,912.5509321689606
1121,913.3709375858307
1122,914.1869428157806
1123,915.0099482536316
1124,915.832953453064
1125,916.6469588279724
1126,917.4619641304016
1127,918.2779693603516
1128,919.0899746417999
1129,919.9089801311493
1130,920.7289853096008
1131,921.5679907798767
1132,922.3889961242676
1133,923.2110016345978
1134,924.0420069694519
1135,924.8790123462677
1136,925.714017868042
1137,926.5460231304169
1138,927.3800287246704
1139,928.202033996582
1140,929.0270392894745
1141,929.8650448322296
1142,930.7020502090454
1143,931.5210554599762
1144,932.3380608558655
1145,933.1530661582947
1146,933.9660713672638
1147,934.7750766277313
1148,935.6020820140839
1149,936.4270875453949
1150,937.2390928268433
1151,938.0600981712341
1152,938.8871033191681
1153,939.7011086940765
1154,940.5281140804291
1155,941.3551194667816
1156,942.1681246757507
1157,942.9701299667358
1158,943.7751352787018
1159,944.5741403102875
1160,945.3581454753876
1161,946.1521506309509
1162,946.9381556510925
1163,947.7251608371735
1164,948.5181660652161
1165,949.3001711368561
1166,950.0811762809753
1167,950.862181186676
1168,951.6521863937378
1169,952.431191444397
1170,953.2281966209412
1171,954.0242018699646
1172,954.813206911087
1173,955.6172122955322
1174,956.4232175350189
1175,957.2382228374481
1176,958.0302278995514
1177,958.7912328243256
1178,959.5252375602722
1179,960.2482423782349
1180,960.9632468223572
1181,961.6952517032623
1182,962.4322564601898
1183,963.1852614879608
1184,963.9632663726807
1185,964.7562716007233
1186,965.5602767467499
1187,966.3742821216583
1188,967.1942875385284
1189,968.0202927589417
1190,968.8442981243134
1191,969.6723034381866
1192,970.5003089904785
1193,971.3383142948151
1194,972.1853199005127
1195,973.020325422287
1196,973.8323307037354
1197,974.6223356723785
1198,975.3883407115936
1199,976.1433455944061
1200,976.8883504867554
1201,977.6433553695679
1202,978.3693602085114
1203,979.0833647251129
1204,979.7893693447113
1205,980.4833738803864
1206,981.1703782081604
1207,981.8583827018738
1208,982.5403871536255
1209,983.2353916168213
1210,983.9333963394165
1211,984.6304008960724
1212,985.3434054851532
1213,986.0424098968506
1214,986.7184143066406
1215,987.3984189033508
1216,988.1154234409332
1217,988.8644282817841
1218,989.615433216095
1219,990.37943816185
1220,991.1404430866241
1221,991.9054481983185
1222,992.678453207016
1223,993.4494581222534
1224,994.2184631824493
1225,994.9854681491852
1226,995.7534730434418
1227,996.5354781150818
1228,997.3464834690094
1229,998.1644887924194
1230,998.9804940223694
1231,999.7834992408752
1232,1000.5695044994354
1233,1001.3145091533661
1234,1002.0315139293671
1235,1002.7195184230804
1236,1003.3785226345062
1237,1004.026526927948
1238,1004.6795310974121
1239,1005.3375353813171
1240,1006.0095398426056
1241,1006.7025442123413
1242,1007.4155488014221
1243,1008.130553483963
1244,1008.8605582714081
1245,1009.5725629329681
1246,1010.2805676460266
1247,1010.9915721416473
1248,1011.7095768451691
1249,1012.4295814037323
1250,1013.147586107254
1251,1013.864590883255
1252,1014.5705955028534
1253,1015.2796001434326
1254,1015.9886045455933
1255,1016.7156093120575
1256,1017.4576141834259
1257,1018.2256190776825
1258,1018.9986243247986
1259,1019.7946293354034
1260,1020.5816345214844
1261,1021.3346393108368
1262,1022.0886442661285
1263,1022.8546493053436
1264,1023.630654335022
1265,1024.4156594276428
1266,1025.2046644687653
1267,1025.9706695079803
1268,1026.7316744327545
1269,1027.5196795463562
1270,1028.3316848278046
1271,1029.147690296173
1272,1029.9526953697205
1273,1030.7697007656097
1274,1031.5697059631348
1275,1032.3497109413147
1276,1033.1387162208557
1277,1033.9367213249207
1278,1034.7377264499664
1279,1035.5367317199707
1280,1036.31773686409
1281,1037.09774184227
1282,1037.8787469863892
1283,1038.6447520256042
1284,1039.3977568149567
1285,1040.1617617607117
1286,1040.93976688385
1287,1041.7237720489502
1288,1042.5077769756317
1289,1043.2927820682526
1290,1044.0807871818542
1291,1044.8677923679352
1292,1045.6337974071503
1293,1046.4068024158478
1294,1047.1748073101044
1295,1047.9528124332428
1296,1048.7278175354004
1297,1049.495822429657
1298,1050.2688274383545
1299,1051.0548326969147
1300,1051.8678379058838
1301,1052.664843082428
1302,1053.464848279953
1303,1054.2728536128998
1304,1055.0768587589264
1305,1055.8578639030457
1306,1056.6438689231873
1307,1057.4298739433289
1308,1058.2188792228699
1309,1059.00088429451
1310,1059.779889345169
1311,1060.5538942813873
1312,1061.3068993091583
1313,1062.0509040355682
1314,1062.7899088859558
1315,1063.5399136543274
1316,1064.2929186820984
1317,1065.0469236373901
1318,1065.8129284381866
1319,1066.590933561325
1320,1067.3699386119843
1321,1068.1309435367584
1322,1068.8949484825134
1323,1069.656953573227
1324,1070.4099583625793
1325,1071.1499631404877
1326,1071.8959679603577
1327,1072.6499729156494
1328,1073.3979778289795
1329,1074.1299827098846
1330,1074.864987373352
1331,1075.626992225647
1332,1076.4069974422455
1333,1077.1790025234222
1334,1077.949007511139
1335,1078.7330124378204
1336,1079.5410177707672
1337,1080.3210227489471
1338,1081.1090278625488
1339,1081.908033132553
1340,1082.731038570404
1341,1083.53404378891
1342,1084.3180487155914
1343,1085.1060540676117
1344,1085.8890590667725
1345,1086.657063961029
1346,1087.4250690937042
1347,1088.203073978424
1348,1088.988079071045
1349,1089.761084318161
1350,1090.5500893592834
1351,1091.364094734192
1352,1092.1810998916626
1353,1092.9791052341461
1354,1093.7851104736328
1355,1094.5941157341003
1356,1095.3991208076477
1357,1096.1881260871887
1358,1096.9871311187744
1359,1097.7941365242004
1360,1098.5951416492462
1361,1099.3921468257904
1362,1100.2051520347595
1363,1101.0041573047638
1364,1101.796162366867
1365,1102.5771675109863
1366,1103.365172624588
1367,1104.1561777591705
1368,1104.9331829547882
1369,1105.7011878490448
1370,1106.4651927947998
1371,1107.2361977100372
1372,1107.99720287323
1373,1108.7602076530457
1374,1109.5352127552032
1375,1110.3162178993225
1376,1111.0812227725983
1377,1111.8462278842926
1378,1112.6112327575684
1379,1113.3852376937866
1380,1114.1662428379059
1381,1114.9362478256226
1382,1115.7182528972626
1383,1116.519258260727
1384,1117.3252635002136
1385,1118.1052684783936
1386,1118.878273487091
1387,1119.6612784862518
1388,1120.440283536911
1389,1121.213288784027
1390,1121.9762935638428
1391,1122.7482986450195
1392,1123.5133035182953
1393,1124.2663085460663
1394,1125.0083134174347
1395,1125.7533180713654
1396,1126.489322900772
1397,1127.2163276672363
1398,1127.9353322982788
1399,1128.6363370418549
1400,1129.3463416099548
1401,1130.071346282959
1402,1130.7883508205414
1403,1131.4973554611206
1404,1132.1823599338531
1405,1132.856364250183
1406,1133.5383687019348
1407,1134.2233731746674
1408,1134.930377960205
1409,1135.6393823623657
1410,1136.3543870449066
1411,1137.0773918628693
1412,1137.8143966197968
1413,1138.5744016170502
1414,1139.3454065322876
1415,1140.1294116973877
1416,1140.9284167289734
1417,1141.7154219150543
1418,1142.510427236557
1419,1143.3174324035645
1420,1144.1364376544952
1421,1144.9354429244995
1422,1145.6984479427338
1423,1146.4514527320862
1424,1147.182457447052
1425,1147.897462129593
1426,1148.6064667701721
1427,1149.3654716014862
1428,1150.1334767341614
1429,1150.8894815444946
1430,1151.6524865627289
1431,1152.3674912452698
1432,1153.0834958553314
1433,1153.8455007076263
1434,1154.658506155014
1435,1155.490511417389
1436,1156.3355169296265
1437,1157.1845223903656
1438,1158.0595281124115
1439,1158.9165337085724
1440,1159.7665393352509
1441,1160.6165447235107
1442,1161.4755504131317
1443,1162.32355594635
1444,1163.1995615959167
1445,1164.0225670337677
1446,1164.8235721588135
1447,1165.6225774288177
1448,1166.4215824604034
1449,1167.2415878772736
1450,1168.0545930862427
1451,1168.8615984916687
1452,1169.6706037521362
1453,1170.4416086673737
1454,1171.1846134662628
1455,1171.9236183166504
1456,1172.6506230831146
1457,1173.354627609253
1458,1174.0446321964264
1459,1174.7216365337372
1460,1175.3816409111023
1461,1176.0236449241638
1462,1176.6666491031647
1463,1177.3316535949707
1464,1178.0186579227448
1465,1178.7246625423431
1466,1179.4486672878265
1467,1180.201672077179
1468,1180.9786772727966
1469,1181.7446820735931
1470,1182.4916870594025
1471,1183.2576920986176
1472,1184.028697013855
1473,1184.8047020435333
1474,1185.5657069683075
1475,1186.343712091446
1476,1187.156717300415
1477,1187.9767227172852
1478,1188.7827279567719
1479,1189.6067333221436
1480,1190.4597387313843
1481,1191.3137443065643
1482,1192.1257495880127
1483,1192.9097547531128
1484,1193.672759771347
1485,1194.416764497757
1486,1195.1537692546844
1487,1195.908774137497
1488,1196.6767792701721
1489,1197.4217841625214
1490,1198.1587889194489
1491,1198.8897936344147
1492,1199.6057982444763
1493,1200.2988028526306
1494,1200.9898073673248
1495,1201.691811800003
1496,1202.3878164291382
1497,1203.0818209648132
1498,1203.7718253135681
1499,1204.4628298282623
1500,1205.144834280014
1501,1205.836838722229
1502,1206.5318431854248
1503,1207.2388479709625
1504,1207.9278523921967
1505,1208.633857011795
1506,1209.3628616333008
1507,1210.0938663482666
1508,1210.8098711967468
1509,1211.5408759117126
1510,1212.2848806381226
1511,1213.0068852901459
1512,1213.7278900146484
1513,1214.4498946666718
1514,1215.1728994846344
1515,1215.8809039592743
1516,1216.585908651352
1517,1217.292913198471
1518,1217.9999177455902
1519,1218.7209224700928
1520,1219.4449272155762
1521,1220.180932044983
1522,1220.9079368114471
1523,1221.6439416408539
1524,1222.3769462108612
1525,1223.0879509449005
1526,1223.7789554595947
1527,1224.4549598693848
1528,1225.120964050293
1529,1225.7819683551788
1530,1226.4469728469849
1531,1227.101977109909
1532,1227.74498128891
1533,1228.3869853019714
1534,1229.0309896469116
1535,1229.6609935760498
1536,1230.284997701645
1537,1230.8970017433167
1538,1231.5050055980682
1539,1232.1140096187592
1540,1232.716013431549
1541,1233.3240175247192
1542,1233.9370214939117
1543,1234.5550255775452
1544,1235.1760294437408
1545,1235.7990336418152
1546,1236.4270377159119
1547,1237.064041852951
1548,1237.704046010971
1549,1238.344050168991
1550,1238.9930543899536
1551,1239.645058631897
1552,1240.2940628528595
1553,1240.9450669288635
1554,1241.594071149826
1555,1242.2400753498077
1556,1242.8820796012878
1557,1243.5230836868286
1558,1244.1540877819061
1559,1244.7820918560028
1560,1245.4090960025787
1561,1246.0441000461578
1562,1246.688104391098
1563,1247.326108455658
1564,1247.9831128120422
1565,1248.6391170024872
1566,1249.2891211509705
1567,1249.9511256217957
1568,1250.6291298866272
1569,1251.3171343803406
1570,1252.000138759613
1571,1252.681143283844
1572,1253.3591477870941
1573,1254.0421521663666
1574,1254.7381565570831
1575,1255.4381611347198
1576,1256.1231656074524
1577,1256.808170080185
1578,1257.4921746253967
1579,1258.1721789836884
1580,1258.8471834659576
1581,1259.5181877613068
1582,1260.1901922225952
1583,1260.8721964359283
1584,1261.5742011070251
1585,1262.2682056427002
1586,1262.9562101364136
1587,1263.6492145061493
1588,1264.336219072342
1589,1265.0152235031128
1590,1265.6952278614044
1591,1266.3852324485779
1592,1267.0772368907928
1593,1267.7802414894104
1594,1268.496246099472
1595,1269.206250667572
1596,1269.9122552871704
1597,1270.6212599277496
1598,1271.3462646007538
1599,1272.0622692108154
1600,1272.7932739257812
1601,1273.5102787017822
1602,1274.2042832374573
1603,1274.902287721634
1604,1275.6002922058105
1605,1276.2962968349457
1606,1277.016301393509
1607,1277.728306055069
1608,1278.4303107261658
1609,1279.12131524086
1610,1279.815319776535
1611,1280.5063242912292
1612,1281.2073287963867
1613,1281.9153332710266
1614,1282.6283378601074
1615,1283.3583426475525
1616,1284.115347623825
1617,1284.8573524951935
1618,1285.5913572311401
1619,1286.311362028122
1620,1287.01136636734
1621,1287.7033710479736
1622,1288.384375333786
1623,1289.065379858017
1624,1289.7493841648102
1625,1290.4453887939453
1626,1291.1443934440613
1627,1291.8413977622986
1628,1292.5324022769928
1629,1293.2324068546295
1630,1293.938411474228
1631,1294.650416135788
1632,1295.3744208812714
1633,1296.1094255447388
1634,1296.836430311203
1635,1297.5624351501465
1636,1298.2714395523071
1637,1298.9694442749023
1638,1299.6704487800598
1639,1300.3734533786774
1640,1301.0794579982758
1641,1301.7974627017975
1642,1302.5304672718048
1643,1303.2494721412659
1644,1303.97247672081
1645,1304.68648147583
1646,1305.3934860229492
1647,1306.1074905395508
1648,1306.8254952430725
1649,1307.531499862671
1650,1308.2405045032501
1651,1308.95050907135
1652,1309.6545135974884
1653,1310.3645181655884
1654,1311.08252286911
1655,1311.7955276966095
1656,1312.5205323696136
1657,1313.2455370426178
1658,1313.9585416316986
1659,1314.6725463867188
1660,1315.3775508403778
1661,1316.0615553855896
1662,1316.731559753418
1663,1317.3995640277863
1664,1318.0645682811737
1665,1318.7425727844238
1666,1319.4195771217346
1667,1320.0925815105438
1668,1320.7715859413147
1669,1321.446590423584
1670,1322.117594718933
1671,1322.7835988998413
1672,1323.4506032466888
1673,1324.1156077384949
1674,1324.781611919403
1675,1325.4566164016724
1676,1326.136620759964
1677,1326.814625263214
1678,1327.4946296215057
1679,1328.1766340732574
1680,1328.8546385765076
1681,1329.521642923355
1682,1330.1916472911835
1683,1330.864651441574
1684,1331.5416560173035
1685,1332.2276604175568
1686,1332.9106647968292
1687,1333.6026692390442
1688,1334.2946739196777
1689,1334.9926784038544
1690,1335.6876828670502
1691,1336.3776874542236
1692,1337.0716919898987
1693,1337.770696401596
1694,1338.4717009067535
1695,1339.181705713272
1696,1339.8997101783752
1697,1340.6147148609161
1698,1341.324719429016
1699,1342.039724111557
1700,1342.7427287101746
1701,1343.4397332668304
1702,1344.1357378959656
1703,1344.818742275238
1704,1345.4987466335297
1705,1346.184751033783
1706,1346.8707556724548
1707,1347.5627601146698
1708,1348.2547645568848
1709,1348.9527690410614
1710,1349.639773607254
1711,1350.3257780075073
1712,1351.0117824077606
1713,1351.6957869529724
1714,1352.3867914676666
1715,1353.0917959213257
1716,1353.7908005714417
1717,1354.5038051605225
1718,1355.2098097801208
1719,1355.9088144302368
1720,1356.6118190288544
1721,1357.3188235759735
1722,1358.0288281440735
1723,1358.747832775116
1724,1359.4798376560211
1725,1360.200842142105
1726,1360.9308469295502
1727,1361.6598517894745
1728,1362.3828563690186
1729,1363.1058611869812
1730,1363.8298659324646
1731,1364.5368704795837
1732,1365.2378749847412
1733,1365.9368796348572
1734,1366.6378841400146
1735,1367.3448886871338
1736,1368.0598933696747
1737,1368.779897928238
1738,1369.4979026317596
1739,1370.2239074707031
1740,1370.949912071228
1741,1371.6659166812897
1742,1372.3799214363098
1743,1373.0929260253906
1744,1373.8029305934906
1745,1374.5199353694916
1746,1375.2349400520325
1747,1375.9479446411133
1748,1376.6679491996765
1749,1377.3999540805817
1750,1378.1279587745667
1751,1378.8579635620117
1752,1379.5919682979584
1753,1380.325973033905
1754,1381.0529778003693
1755,1381.768982410431
1756,1382.47598695755
1757,1383.172991514206
1758,1383.8679962158203
1759,1384.5830006599426
1760,1385.3020055294037
1761,1386.0130100250244
1762,1386.7240147590637
1763,1387.4310193061829
1764,1388.1270236968994
1765,1388.830028295517
1766,1389.5380330085754
1767,1390.2400374412537
1768,1390.9500422477722
1769,1391.661046743393
1770,1392.3660514354706
1771,1393.0680558681488
1772,1393.779060602188
1773,1394.4830651283264
1774,1395.1930696964264
1775,1395.9000742435455
1776,1396.6010789871216
1777,1397.3030834197998
1778,1398.014088153839
1779,1398.720092535019
1780,1399.4300973415375
1781,1400.1531019210815
1782,1400.8761067390442
1783,1401.602111339569
1784,1402.3271160125732
1785,1403.0531208515167
1786,1403.759125471115
1787,1404.4701299667358
1788,1405.177134513855
1789,1405.8791391849518
1790,1406.5851438045502
1791,1407.3021483421326
1792,1408.0051529407501
1793,1408.7051575183868
1794,1409.4111621379852
1795,1410.1021666526794
1796,1410.7951712608337
1797,1411.4931757450104
1798,1412.189180135727
1799,1412.8971848487854
1800,1413.6031894683838
1801,1414.307193994522
1802,1415.0271985530853
1803,1415.7562034130096
1804,1416.4792079925537
1805,1417.2022128105164
1806,1417.9282174110413
1807,1418.648222208023
1808,1419.3722269535065
1809,1420.0902316570282
1810,1420.805236339569
1811,1421.515240907669
1812,1422.2182455062866
1813,1422.915249824524
1814,1423.6012544631958
1815,1424.29025888443
1816,1424.9562633037567
1817,1425.6052675247192
1818,1426.264271736145
1819,1426.9492762088776
1820,1427.6492807865143
1821,1428.3562853336334
1822,1429.072289943695
1823,1429.7982947826385
1824,1430.5292994976044
1825,1431.245304107666
1826,1431.957308769226
1827,1432.6803133487701
1828,1433.3993179798126
1829,1434.1153228282928
1830,1434.838327407837
1831,1435.5623321533203
1832,1436.2733368873596
1833,1436.9763412475586
1834,1437.6903460025787
1835,1438.4063506126404
1836,1439.1203553676605
1837,1439.8443598747253
1838,1440.5863647460938
1839,1441.3273696899414
1840,1442.061374425888
1841,1442.7923791408539
1842,1443.5143837928772
1843,1444.2313885688782
1844,1444.9483931064606
1845,1445.6623978614807
1846,1446.3674023151398
1847,1447.078407049179
1848,1447.7984116077423
1849,1448.5114164352417
1850,1449.2384209632874
1851,1449.9764258861542
1852,1450.7114305496216
1853,1451.4464354515076
1854,1452.1964402198792
1855,1452.9404451847076
1856,1453.6874499320984
1857,1454.43945479393
1858,1455.1984598636627
1859,1455.9444646835327
1860,1456.7084696292877
1861,1457.4744746685028
1862,1458.228479385376
1863,1458.9884843826294
1864,1459.7494893074036
1865,1460.4944941997528
1866,1461.2314989566803
1867,1461.965503692627
1868,1462.6885085105896
1869,1463.4095132350922
1870,1464.1365180015564
1871,1464.8665225505829
1872,1465.5875272750854
1873,1466.306531906128
1874,1467.0265367031097
1875,1467.7395412921906
1876,1468.4595460891724
1877,1469.173550605774
1878,1469.8865551948547
1879,1470.6035599708557
1880,1471.3165645599365
1881,1472.0285692214966
1882,1472.7285737991333
1883,1473.4375784397125
1884,1474.154582977295
1885,1474.868587732315
1886,1475.5985925197601
1887,1476.3335971832275
1888,1477.059602022171
1889,1477.7966067790985
1890,1478.5356113910675
1891,1479.2726163864136
1892,1479.9966208934784
1893,1480.7236256599426
1894,1481.4516303539276
1895,1482.1786351203918
1896,1482.9096398353577
1897,1483.6556448936462
1898,1484.4066495895386
1899,1485.1456544399261
1900,1485.8856592178345
1901,1486.6256639957428
1902,1487.3626689910889
1903,1488.103673696518
1904,1488.8426785469055
1905,1489.5716831684113
1906,1490.2986879348755
1907,1491.0286927223206
1908,1491.7556974887848
1909,1492.4917023181915
1910,1493.2327070236206
1911,1493.976711988449
1912,1494.7147166728973
1913,1495.453721523285
1914,1496.2047264575958
1915,1496.9387311935425
1916,1497.67773604393
1917,1498.403740644455
1918,1499.1257452964783
1919,1499.84575009346
1920,1500.5727548599243
1921,1501.306759595871
1922,1502.0327641963959
1923,1502.7567689418793
1924,1503.4937736988068
1925,1504.218778371811
1926,1504.9397830963135
1927,1505.6627879142761
1928,1506.3867926597595
1929,1507.0967972278595
1930,1507.810801744461
1931,1508.5358064174652
1932,1509.2668113708496
1933,1509.9988160133362
1934,1510.734820842743
1935,1511.4558255672455
1936,1512.1788301467896
1937,1512.904834985733
1938,1513.630839586258
1939,1514.3508443832397
1940,1515.0658490657806
1941,1515.7768535614014
1942,1516.4888582229614
1943,1517.207862854004
1944,1517.9368677139282
1945,1518.6718723773956
1946,1519.397877216339
1947,1520.130882024765
1948,1520.8618867397308
1949,1521.586891412735
1950,1522.3188960552216
1951,1523.0409007072449
1952,1523.754905462265
1953,1524.4739100933075
1954,1525.197914838791
1955,1525.911919593811
1956,1526.6279242038727
1957,1527.3469288349152
1958,1528.0679335594177
1959,1528.794938325882
1960,1529.5319430828094
1961,1530.2579476833344
1962,1530.9859523773193
1963,1531.7059571743011
1964,1532.4269618988037
1965,1533.1449666023254
1966,1533.8659710884094
1967,1534.5799758434296
1968,1535.3029804229736
1969,1536.0249853134155
1970,1536.759989976883
1971,1537.5009949207306
1972,1538.248999595642
1973,1539.0090045928955
1974,1539.769009590149
1975,1540.5290145874023
1976,1541.2840194702148
1977,1542.0480244159698
1978,1542.8160293102264
1979,1543.5720343589783
1980,1544.3270392417908
1981,1545.0710439682007
1982,1545.8240489959717
1983,1546.5720539093018
1984,1547.3250586986542
1985,1548.0860636234283
1986,1548.8420684337616
1987,1549.6050734519958
1988,1550.3790786266327
1989,1551.1570835113525
1990,1551.919088602066
1991,1552.681093454361
1992,1553.4490985870361
1993,1554.2121033668518
1994,1554.9821083545685
1995,1555.7721135616302
1996,1556.5651187896729
1997,1557.3561239242554
1998,1558.1631290912628
1999,1558.9751343727112
2000,1559.7711396217346
2001,1560.5611448287964
2002,1561.3611500263214
2003,1562.152155160904
2004,1562.9281601905823
2005,1563.7171652317047
2006,1564.5181703567505
2007,1565.3191757202148
2008,1566.1241807937622
2009,1566.934186220169
2010,1567.7511913776398
2011,1568.5651967525482
2012,1569.3822021484375
2013,1570.1882073879242
2014,1570.9812123775482
2015,1571.7922177314758
2016,1572.5952229499817
2017,1573.389228105545
2018,1574.194233417511
2019,1575.0092387199402
2020,1575.8212440013885
2021,1576.6342492103577
2022,1577.4542546272278
2023,1578.2772598266602
2024,1579.0742650032043
2025,1579.8712701797485
2026,1580.6822755336761
2027,1581.5022809505463
2028,1582.3042860031128
2029,1583.108291387558
2030,1583.924296617508
2031,1584.7393019199371
2032,1585.5613071918488
2033,1586.3743126392365
2034,1587.1913177967072
2035,1587.999323129654
2036,1588.817328453064
2037,1589.6213335990906
2038,1590.4433388710022
2039,1591.2773444652557
2040,1592.1013498306274
2041,1592.9023549556732
2042,1593.7043602466583
2043,1594.508365392685
2044,1595.303370475769
2045,1596.1043758392334
2046,1596.9233810901642
2047,1597.7573864459991
2048,1598.5923919677734
2049,1599.4053971767426
2050,1600.2284026145935
2051,1601.0584080219269
2052,1601.8814132213593
2053,1602.689418554306
2054,1603.4974238872528
2055,1604.3064291477203
2056,1605.1024343967438
2057,1605.9044394493103
2058,1606.7144448757172
2059,1607.5194499492645
2060,1608.3244552612305
2061,1609.1554605960846
2062,1609.9954659938812
2063,1610.8364715576172
2064,1611.6564769744873
2065,1612.4794821739197
2066,1613.3084876537323
2067,1614.1264929771423
2068,1614.9314982891083
2069,1615.7515034675598
2070,1616.5695087909698
2071,1617.4065141677856
2072,1618.2195196151733
2073,1619.02552485466
2074,1619.8485300540924
2075,1620.6675355434418
2076,1621.47554063797
2077,1622.2815458774567
2078,1623.0975513458252
2079,1623.9015564918518
2080,1624.7135617733002
2081,1625.534567117691
2082,1626.355572462082
2083,1627.1565775871277
2084,1627.9675829410553
2085,1628.7745881080627
2086,1629.578593492508
2087,1630.3745985031128
2088,1631.1726038455963
2089,1631.9646089076996
2090,1632.760614156723
2091,1633.542619228363
2092,1634.3526244163513
2093,1635.163629770279
2094,1635.9846351146698
2095,1636.7886402606964
2096,1637.6056456565857
2097,1638.4256508350372
2098,1639.253656387329
2099,1640.0606615543365
2100,1640.872666835785
2101,1641.6986722946167
2102,1642.5126774311066
2103,1643.3146827220917
2104,1644.1126878261566
2105,1644.8826928138733
2106,1645.6216976642609
2107,1646.3457024097443
2108,1647.0727071762085
2109,1647.8107118606567
2110,1648.5697169303894
2111,1649.3337218761444
2112,1650.0907266139984
2113,1650.8387315273285
2114,1651.593736410141
2115,1652.3507413864136
2116,1653.0987462997437
2117,1653.8307509422302
2118,1654.5337555408478
2119,1655.229760169983
2120,1655.9507648944855
2121,1656.7307698726654
2122,1657.5287749767303
2123,1658.3357803821564
2124,1659.1497855186462
2125,1659.962790966034
2126,1660.7467958927155
2127,1661.5148010253906
2128,1662.290806055069
2129,1663.085811138153
2130,1663.8988165855408
2131,1664.6918215751648
2132,1665.488826751709
2133,1666.3048322200775
2134,1667.1388375759125
2135,1667.9598429203033
2136,1668.7748482227325
2137,1669.5838534832
2138,1670.4038589000702
2139,1671.2138640880585
2140,1672.040869474411
2141,1672.8648748397827
2142,1673.7008802890778
2143,1674.528885602951
2144,1675.3538908958435
2145,1676.1528961658478
2146,1676.913901090622
2147,1677.6689059734344
2148,1678.4299108982086
2149,1679.2069160938263
2150,1679.9759209156036
2151,1680.7559261322021
2152,1681.5369310379028
2153,1682.3319363594055
2154,1683.1259415149689
2155,1683.907946586609
2156,1684.686951637268
2157,1685.4779567718506
2158,1686.2549617290497
2159,1687.0279667377472
2160,1687.8059718608856
2161,1688.5939769744873
2162,1689.3899822235107
2163,1690.165987253189
2164,1690.9489922523499
2165,1691.7489974498749
2166,1692.564002752304
2167,1693.351007938385
2168,1694.1450130939484
2169,1694.9450182914734
2170,1695.7450234889984
2171,1696.536028623581
2172,1697.3090336322784
2173,1698.0760385990143
2174,1698.846043586731
2175,1699.6180486679077
2176,1700.3960537910461
2177,1701.1720588207245
2178,1701.961063861847
2179,1702.768069267273
2180,1703.563074350357
2181,1704.343079328537
2182,1705.1160843372345
2183,1705.8880894184113
2184,1706.6480944156647
2185,1707.419099330902
2186,1708.1951043605804
2187,1708.9581093788147
2188,1709.6951141357422
2189,1710.3961186408997
2190,1711.0831232070923
2191,1711.7681276798248
2192,1712.4731323719025
2193,1713.1881368160248
2194,1713.9051415920258
2195,1714.6211462020874
2196,1715.3461508750916
2197,1716.0751557350159
2198,1716.8101603984833
2199,1717.5471651554108
2200,1718.2781701087952
2201,1719.0001747608185
2202,1719.7311794757843
2203,1720.4701843261719
2204,1721.2011890411377
2205,1721.9421937465668
2206,1722.707198858261
2207,1723.453203678131
2208,1724.1942083835602
2209,1724.9282131195068
2210,1725.6702179908752
2211,1726.4092228412628
2212,1727.1532278060913
2213,1727.9022326469421
2214,1728.6432373523712
2215,1729.3872423171997
2216,1730.1362471580505
2217,1730.8802518844604
2218,1731.6082565784454
2219,1732.3392612934113
2220,1733.080266237259
2221,1733.8022708892822
2222,1734.5262756347656
2223,1735.2422802448273
2224,1735.9452848434448
2225,1736.6372892856598
2226,1737.3252937793732
2227,1738.0242984294891
2228,1738.7123029232025
2229,1739.3963072299957
2230,1740.0793116092682
2231,1740.745316028595
2232,1741.4073202610016
2233,1742.061324596405
2234,1742.7113287448883
2235,1743.3543329238892
2236,1743.99933719635
2237,1744.6543414592743
2238,1745.2993457317352
2239,1745.945349931717
2240,1746.5883541107178
2241,1747.2333581447601
2242,1747.878362417221
2243,1748.5293667316437
2244,1749.1853709220886
2245,1749.837375164032
2246,1750.5013794898987
2247,1751.1643838882446
2248,1751.8383882045746
2249,1752.5143926143646
2250,1753.2053971290588
2251,1753.907401561737
2252,1754.604406118393
2253,1755.296410560608
2254,1755.9984152317047
2255,1756.7104198932648
2256,1757.4154243469238
2257,1758.124428987503
2258,1758.836433649063
2259,1759.531438112259
2260,1760.2154426574707
2261,1760.8984470367432
2262,1761.5814514160156
2263,1762.2594559192657
2264,1762.9404604434967
2265,1763.6324648857117
2266,1764.3284692764282
2267,1765.0334739685059
2268,1765.745478630066
2269,1766.4644832611084
2270,1767.1734879016876
2271,1767.895492553711
2272,1768.6164972782135
2273,1769.3295018672943
2274,1770.0335063934326
2275,1770.7335109710693
2276,1771.436515569687
2277,1772.1425201892853
2278,1772.8505246639252
2279,1773.5815296173096
2280,1774.3125343322754
2281,1775.0515389442444
2282,1775.7985439300537
2283,1776.538548707962
2284,1777.273553609848
2285,1778.0085582733154
2286,1778.7405631542206
2287,1779.4675676822662
2288,1780.1885724067688
2289,1780.902577161789
2290,1781.6165816783905
2291,1782.3485865592957
2292,1783.0815913677216
2293,1783.832596063614
2294,1784.5726008415222
2295,1785.3136057853699
2296,1786.0676107406616
2297,1786.7926154136658
2298,1787.5156199932098
2299,1788.2356247901917
2300,1788.9476294517517
2301,1789.664633989334
2302,1790.3836386203766
2303,1791.112643480301
2304,1791.840648174286
2305,1792.5716528892517
2306,1793.3026576042175
2307,1794.028662443161
2308,1794.7626671791077
2309,1795.4996719360352
2310,1796.253676891327
2311,1797.0096817016602
2312,1797.7446866035461
2313,1798.4866914749146
2314,1799.2346963882446
2315,1799.9687011241913
2316,1800.6917057037354
2317,1801.4087104797363
2318,1802.1167149543762
2319,1802.8237195014954
2320,1803.541724205017
2321,1804.258728981018
2322,1804.9797337055206
2323,1805.7047383785248
2324,1806.4167430400848
2325,1807.1277475357056
2326,1807.8477523326874
2327,1808.5607569217682
2328,1809.2767615318298
2329,1809.9897661209106
2330,1810.70077085495
2331,1811.41277551651
2332,1812.1347801685333
2333,1812.8617849349976
2334,1813.5827896595001
2335,1814.3007941246033
2336,1815.0277988910675
2337,1815.769803762436
2338,1816.5168085098267
2339,1817.2648134231567
2340,1818.0158183574677
2341,1818.7488231658936
2342,1819.4778277873993
2343,1820.2168326377869
2344,1820.9478373527527
2345,1821.6788420677185
2346,1822.4118468761444
2347,1823.1518516540527
2348,1823.8718564510345
2349,1824.5848610401154
2350,1825.3038656711578
2351,1826.0248703956604
2352,1826.7488751411438
2353,1827.4818799495697
2354,1828.205884695053
2355,1828.9228892326355
2356,1829.6568939685822
2357,1830.4028987884521
2358,1831.1399037837982
2359,1831.888908624649
2360,1832.6389133930206
2361,1833.3779182434082
2362,1834.0949227809906
2363,1834.80592751503
2364,1835.5219321250916
2365,1836.2289366722107
2366,1836.93794131279
2367,1837.6649460792542
2368,1838.4149510860443
2369,1839.1639559268951
2370,1839.9049606323242
2371,1840.6479654312134
2372,1841.370970249176
2373,1842.0819747447968
2374,1842.790979385376
2375,1843.4979839324951
2376,1844.194988489151
2377,1844.893993139267
2378,1845.5929975509644
2379,1846.296002149582
2380,1847.0020067691803
2381,1847.715011358261
2382,1848.4390161037445
2383,1849.1320207118988
2384,1849.8040249347687
2385,1850.474029302597
2386,1851.135033607483
2387,1851.7990379333496
2388,1852.4760422706604
2389,1853.1530468463898
2390,1853.8350512981415
2391,1854.531055688858
2392,1855.2320601940155
2393,1855.9270648956299
2394,1856.6250693798065
2395,1857.3330738544464
2396,1858.038078546524
2397,1858.7400829792023
2398,1859.4390876293182
2399,1860.1470923423767
2400,1860.8540968894958
2401,1861.5601015090942
2402,1862.2591059207916
2403,1862.9621105194092
2404,1863.664115190506
2405,1864.3911197185516
2406,1865.1461248397827
2407,1865.9131298065186
2408,1866.6781346797943
2409,1867.4601397514343
2410,1868.253144979477
2411,1869.0161499977112
2412,1869.7751548290253
2413,1870.5431597232819
2414,1871.327164888382
2415,1872.0851697921753
2416,1872.8501749038696
2417,1873.6221797466278
2418,1874.408185005188
2419,1875.152189731598
2420,1875.8901946544647
2421,1876.6181993484497
2422,1877.3302040100098
2423,1878.050208568573
2424,1878.8062136173248
2425,1879.5532183647156
2426,1880.290223121643
2427,1881.0352280139923
2428,1881.7562327384949
2429,1882.4542372226715
2430,1883.1482417583466
2431,1883.831246137619
2432,1884.5092506408691
2433,1885.1942551136017
2434,1885.8762595653534
2435,1886.5532639026642
2436,1887.2432684898376
2437,1887.9442729949951
2438,1888.6452775001526
2439,1889.349282026291
2440,1890.0672867298126
2441,1890.7902915477753
2442,1891.4972960948944
2443,1892.2053005695343
2444,1892.9153051376343
2445,1893.6133098602295
2446,1894.3103144168854
2447,1895.0093188285828
2448,1895.7273235321045
2449,1896.4443283081055
2450,1897.156332731247
2451,1897.8623373508453
2452,1898.5703420639038
2453,1899.2683465480804
2454,1899.9743511676788
2455,1900.6853556632996
2456,1901.3863604068756
2457,1902.074364900589
2458,1902.7513692378998
2459,1903.4283735752106
2460,1904.100378036499
2461,1904.7733824253082
2462,1905.45538687706
2463,1906.1333911418915
2464,1906.800395488739
2465,1907.4713997840881
2466,1908.1474041938782
2467,1908.83340883255
2468,1909.5344133377075
2469,1910.2384178638458
2470,1910.9434225559235
2471,1911.6564271450043
2472,1912.3774318695068
2473,1913.0834362506866
2474,1913.7864408493042
2475,1914.4874455928802
2476,1915.200450181961
2477,1915.9054546356201
2478,1916.609459400177
2479,1917.3254640102386
2480,1918.0384685993195
2481,1918.7634732723236
2482,1919.4814779758453
2483,1920.1934826374054
2484,1920.9034872055054
2485,1921.6234917640686
2486,1922.3464965820312
2487,1923.0615012645721
2488,1923.7855060100555
2489,1924.5075106620789
2490,1925.2205152511597
2491,1925.9345200061798
2492,1926.6435244083405
2493,1927.3365290164948
2494,1928.0245335102081
2495,1928.716537952423
2496,1929.4015424251556
2497,1930.0795469284058
2498,1930.7665512561798
2499,1931.4685559272766
2500,1932.1755604743958
2501,1932.8925652503967
2502,1933.6265699863434
2503,1934.3575747013092
2504,1935.0915794372559
2505,1935.8265841007233
2506,1936.56458902359
2507,1937.290593624115
2508,1938.02059841156
2509,1938.7636032104492
2510,1939.5136082172394
2511,1940.2506129741669
2512,1940.980617761612
2513,1941.7406227588654
2514,1942.5376279354095
2515,1943.3236329555511
2516,1944.0986380577087
2517,1944.8756430149078
2518,1945.6606481075287
2519,1946.4156529903412
2520,1947.1496577262878
2521,1947.8736624717712
2522,1948.5856671333313
2523,1949.2866716384888
2524,1949.9786763191223
2525,1950.669680595398
2526,1951.345685005188
2527,1952.023689508438
2528,1952.7016940116882
2529,1953.3756983280182
2530,1954.0497026443481
2531,1954.7147068977356
2532,1955.3647112846375
2533,1956.0017154216766
2534,1956.6347193717957
2535,1957.270723581314
2536,1957.9257278442383
2537,1958.5837321281433
2538,1959.2467365264893
2539,1959.9157407283783
2540,1960.581745147705
2541,1961.2547495365143
2542,1961.936753988266
2543,1962.6217584609985
2544,1963.302762746811
2545,1963.9927673339844
2546,1964.6807718276978
2547,1965.3687763214111
2548,1966.0557806491852
2549,1966.7567853927612
2550,1967.4367897510529
2551,1968.1197941303253
2552,1968.8187987804413
2553,1969.5338032245636
2554,1970.2458078861237
2555,1970.9278123378754
2556,1971.6198167800903
2557,1972.344821691513
2558,1973.1008265018463
2559,1973.8698315620422
2560,1974.6278364658356
2561,1975.380841255188
2562,1976.1428463459015
2563,1976.9038512706757
2564,1977.6508560180664
2565,1978.4008610248566
2566,1979.155865907669
2567,1979.9168708324432
2568,1980.6758756637573
2569,1981.4338808059692
2570,1982.2078857421875
2571,1982.962890625
2572,1983.7158954143524
2573,1984.4589004516602
2574,1985.184905052185
2575,1985.8929097652435
2576,1986.591914176941
2577,1987.2759187221527
2578,1987.9529230594635
2579,1988.6259274482727
2580,1989.3069319725037
2581,1989.987936258316
2582,1990.6699407100677
2583,1991.3589451313019
2584,1992.0379495620728
2585,1992.723953962326
2586,1993.4119584560394
2587,1994.0959630012512
2588,1994.7759673595428
2589,1995.4569718837738
2590,1996.1319761276245
2591,1996.8009805679321
2592,1997.4659848213196
2593,1998.1329891681671
2594,1998.793993473053
2595,1999.4629979133606
2596,2000.1370022296906
2597,2000.8170065879822
2598,2001.5090112686157
2599,2002.2250158786774
2600,2002.9480204582214
2601,2003.6950254440308
2602,2004.4470303058624
2603,2005.1920351982117
2604,2005.927039861679
2605,2006.6710448265076
2606,2007.4280495643616
2607,2008.1630544662476
2608,2008.8960592746735
2609,2009.6360640525818
2610,2010.3750689029694
2611,2011.1200735569
2612,2011.8580784797668
2613,2012.6140832901
2614,2013.3440880775452
2615,2014.077092885971
2616,2014.8180975914001
2617,2015.5651025772095
2618,2016.2931072711945
2619,2017.012111902237
2620,2017.737116575241
2621,2018.4631214141846
2622,2019.1831259727478
2623,2019.9181308746338
2624,2020.6711356639862
2625,2021.3981404304504
2626,2022.1091451644897
2627,2022.8061497211456
2628,2023.4841539859772
2629,2024.152158498764
2630,2024.8131625652313
2631,2025.4731669425964
2632,2026.1441712379456
2633,2026.834175825119
2634,2027.5201802253723
2635,2028.2221848964691
2636,2028.9331893920898
2637,2029.64719414711
2638,2030.3611986637115
2639,2031.0902035236359
2640,2031.8252081871033
2641,2032.5522129535675
2642,2033.2862176895142
2643,2034.0322225093842
2644,2034.7692275047302
2645,2035.493232011795
2646,2036.215236902237
2647,2036.9342415332794
2648,2037.6492462158203
2649,2038.3622508049011
2650,2039.0732553005219
2651,2039.8112602233887
2652,2040.585265159607
2653,2041.3482701778412
2654,2042.0962750911713
2655,2042.8532800674438
2656,2043.6292850971222
2657,2044.3922898769379
2658,2045.1442947387695
2659,2045.9102997779846
2660,2046.6923048496246
2661,2047.4623098373413
2662,2048.2583150863647
2663,2049.0613203048706
2664,2049.8593254089355
2665,2050.6693308353424
2666,2051.4803359508514
2667,2052.2903413772583
2668,2053.1163465976715
2669,2053.9373519420624
2670,2054.7473573684692
2671,2055.5373623371124
2672,2056.3423676490784
2673,2057.149372816086
2674,2057.95037817955
2675,2058.7583832740784
2676,2059.5973887443542
2677,2060.4333941936493
2678,2061.2533996105194
2679,2062.0814049243927
2680,2062.911410331726
2681,2063.765415906906
2682,2064.591421365738
2683,2065.4214267730713
2684,2066.2464320659637
2685,2067.023437023163
2686,2067.768441915512
2687,2068.5114467144012
2688,2069.280451774597
2689,2070.0724568367004
2690,2070.9084622859955
2691,2071.7704679965973
2692,2072.6004734039307
2693,2073.4554789066315
2694,2074.3124845027924
2695,2075.129489660263
2696,2075.9424951076508
2697,2076.760500431061
2698,2077.5955057144165
2699,2078.430511236191
2700,2079.260516643524
2701,2080.114522218704
2702,2080.972527742386
2703,2081.7995331287384
2704,2082.62353849411
2705,2083.4525439739227
2706,2084.299549341202
2707,2085.1315548419952
2708,2085.9965603351593
2709,2086.866566181183
2710,2087.723571538925
2711,2088.5755772590637
2712,2089.4305827617645
2713,2090.294588327408
2714,2091.1265938282013
2715,2091.9595992565155
2716,2092.799604654312
2717,2093.635610103607
2718,2094.4606153964996
2719,2095.303620815277
2720,2096.1726264953613
2721,2097.034632205963
2722,2097.870637655258
2723,2098.7186431884766
2724,2099.566648721695
2725,2100.4076540470123
2726,2101.2426595687866
2727,2102.103665113449
2728,2102.9716708660126
2729,2103.8236763477325
2730,2104.669681787491
2731,2105.5266873836517
2732,2106.393692970276
2733,2107.2416985034943
2734,2108.103704214096
2735,2108.9797098636627
2736,2109.8497154712677
2737,2110.7017209529877
2738,2111.5557265281677
2739,2112.3977320194244
2740,2113.2287373542786
2741,2114.062742948532
2742,2114.9067482948303
2743,2115.749753713608
2744,2116.585759162903
2745,2117.438764810562
2746,2118.282770395279
2747,2119.111775636673
2748,2119.9017808437347
2749,2120.6767859458923
2750,2121.4387907981873
2751,2122.192795753479
2752,2122.9498007297516
2753,2123.6908054351807
2754,2124.4258103370667
2755,2125.1548149585724
2756,2125.8798196315765
2757,2126.5918242931366
2758,2127.297828912735
2759,2128.0008335113525
2760,2128.6908378601074
2761,2129.374842405319
2762,2130.058846950531
2763,2130.7338511943817
2764,2131.387855529785
2765,2132.0228595733643
2766,2132.6488637924194
2767,2133.2658677101135
2768,2133.879871606827
2769,2134.502875804901
2770,2135.140879869461
2771,2135.7778840065002
2772,2136.3998880386353
2773,2137.0238921642303
2774,2137.6508963108063
2775,2138.275900363922
2776,2138.908904314041
2777,2139.556908607483
2778,2140.2109129428864
2779,2140.8809173107147
2780,2141.5529215335846
2781,2142.221925973892
2782,2142.901930332184
2783,2143.590934753418
2784,2144.271939277649
2785,2144.939943552017
2786,2145.587947845459
2787,2146.241951942444
2788,2146.9339566230774
2789,2147.636961221695
2790,2148.3589658737183
2791,2149.1319708824158
2792,2149.949976205826
2793,2150.7529814243317
2794,2151.546986579895
2795,2152.34699177742
2796,2153.133996963501
2797,2153.880001783371
2798,2154.58700633049
2799,2155.2860107421875
2800,2155.989015340805
2801,2156.688019990921
2802,2157.398024559021
2803,2158.115029335022
2804,2158.8420338630676
2805,2159.5560386180878
2806,2160.2740433216095
2807,2161.009047985077
2808,2161.7610528469086
2809,2162.5100576877594
2810,2163.272062778473
2811,2164.041067838669
2812,2164.8090727329254
2813,2165.5470776557922
2814,2166.278082370758
2815,2167.022087097168
2816,2167.793092250824
2817,2168.547096967697
2818,2169.3021018505096
2819,2170.0661070346832
2820,2170.8351118564606
2821,2171.5941169261932
2822,2172.3661217689514
2823,2173.1511268615723
2824,2173.9341320991516
2825,2174.725137233734
2826,2175.52814245224
2827,2176.3271477222443
2828,2177.113152742386
2829,2177.913157939911
2830,2178.718163251877
2831,2179.492168188095
2832,2180.269173145294
2833,2181.058178424835
2834,2181.8351833820343
2835,2182.6111884117126
2836,2183.408193588257
2837,2184.205198764801
2838,2184.977203845978
2839,2185.761209011078
2840,2186.5482139587402
2841,2187.3292191028595
2842,2188.104224205017
2843,2188.889229297638
2844,2189.6832344532013
2845,2190.452239513397
2846,2191.2272443771362
2847,2192.006249666214
2848,2192.781254529953
2849,2193.552259683609
2850,2194.334264755249
2851,2195.1262698173523
2852,2195.9032747745514
2853,2196.696280002594
2854,2197.483285188675
2855,2198.2482900619507
2856,2199.0152950286865
2857,2199.785300016403
2858,2200.554305076599
2859,2201.3173100948334
2860,2202.08731508255
2861,2202.8573200702667
2862,2203.6133251190186
2863,2204.3773300647736
2864,2205.148334980011
2865,2205.909339904785
2866,2206.67334485054
2867,2207.4393498897552
2868,2208.208354949951
2869,2208.9763598442078
2870,2209.757364988327
2871,2210.5513701438904
2872,2211.3313751220703
2873,2212.1123802661896
2874,2212.887385368347
2875,2213.672390460968
2876,2214.444395303726
2877,2215.2274005413055
2878,2216.0294058322906
2879,2216.8124108314514
2880,2217.6044158935547
2881,2218.420421361923
2882,2219.22642660141
2883,2220.0304317474365
2884,2220.8254368305206
2885,2221.624442100525
2886,2222.403447151184
2887,2223.1954522132874
2888,2224.006457567215
2889,2224.801462650299
2890,2225.5984678268433
2891,2226.3974730968475
2892,2227.189478158951
2893,2227.971483230591
2894,2228.7504885196686
2895,2229.5324935913086
2896,2230.2934985160828
2897,2231.054503440857
2898,2231.820508480072
2899,2232.597513437271
2900,2233.363518476486
2901,2234.1365234851837
2902,2234.9275286197662
2903,2235.7195336818695
2904,2236.507538795471
2905,2237.299544095993
2906,2238.079549074173
2907,2238.8545541763306
2908,2239.6265590190887
2909,2240.3985641002655
2910,2241.1675691604614
2911,2241.940574169159
2912,2242.719579219818
2913,2243.4935841560364
2914,2244.2585892677307
2915,2245.0235941410065
2916,2245.7895991802216
2917,2246.5566041469574
2918,2247.3226091861725
2919,2248.0896141529083
2920,2248.861619234085
2921,2249.6276240348816
2922,2250.3976290225983
2923,2251.1836342811584
2924,2251.9626393318176
2925,2252.7456443309784
2926,2253.5466496944427
2927,2254.359654903412
2928,2255.136659860611
2929,2255.91566491127
2930,2256.704670190811
2931,2257.4806752204895
2932,2258.2496802806854
2933,2259.033685207367
2934,2259.833690404892
2935,2260.6146955490112
2936,2261.397700548172
2937,2262.1887056827545
2938,2262.969710826874
2939,2263.727715730667
2940,2264.491720676422
2941,2265.2537257671356
2942,2266.01473069191
2943,2266.777735710144
2944,2267.549740552902
2945,2268.3297457695007
2946,2269.1047506332397
2947,2269.9027559757233
2948,2270.701761007309
2949,2271.4917662143707
2950,2272.2657713890076
2951,2273.0477764606476
2952,2273.8457815647125
2953,2274.639786720276
2954,2275.4487919807434
2955,2276.2667973041534
2956,2277.0848026275635
2957,2277.872807741165
2958,2278.6718130111694
2959,2279.458817958832
2960,2280.239823102951
2961,2281.021828174591
2962,2281.8278334140778
2963,2282.6388387680054
2964,2283.427843809128
2965,2284.226849079132
2966,2285.039854288101
2967,2285.8438596725464
2968,2286.6408648490906
2969,2287.448869943619
2970,2288.245875120163
2971,2289.027880191803
2972,2289.8178853988647
2973,2290.624890565872
2974,2291.4058957099915
2975,2292.18190073967
2976,2292.952905654907
2977,2293.7129106521606
2978,2294.4289152622223
2979,2295.1369199752808
2980,2295.8499245643616
2981,2296.5749292373657
2982,2297.321934223175
2983,2298.0979392528534
2984,2298.8959443569183
2985,2299.672949552536
2986,2300.4539544582367
2987,2301.24995970726
2988,2302.0419647693634
2989,2302.8229699134827
2990,2303.616975069046
2991,2304.4099802970886
2992,2305.1869852542877
2993,2305.9509902000427
2994,2306.7199952602386
2995,2307.4890003204346
2996,2308.239005088806
2997,2308.992010116577
2998,2309.7500150203705
2999,2310.507019996643
3000,2311.271024942398
3001,2312.038029909134
3002,2312.815034866333
3003,2313.5960400104523
3004,2314.386045217514
3005,2315.169050216675
3006,2315.9360551834106
3007,2316.707060098648
3008,2317.491065263748
3009,2318.2650701999664
3010,2319.0350754261017
3011,2319.80908036232
3012,2320.590085506439
3013,2321.3620903491974
3014,2322.1310954093933
3015,2322.9151005744934
3016,2323.7141058444977
3017,2324.50511097908
3018,2325.304116010666
3019,2326.0991213321686
3020,2326.904126405716
3021,2327.689131498337
3022,2328.4831366539
3023,2329.2761418819427
3024,2330.050146818161
3025,2330.8271520137787
3026,2331.618157148361
3027,2332.388162136078
3028,2333.1581671237946
3029,2333.944172143936
3030,2334.7351772785187
3031,2335.5101823806763
3032,2336.300187587738
3033,2337.0931928157806
3034,2337.8941979408264
3035,2338.701203107834
3036,2339.524208545685
3037,2340.3612139225006
3038,2341.1692192554474
3039,2341.9842245578766
3040,2342.781229734421
3041,2343.575234889984
3042,2344.3482398986816
3043,2345.1322450637817
3044,2345.9182500839233
3045,2346.685255050659
3046,2347.454260110855
3047,2348.236265182495
3048,2349.0142703056335
3049,2349.7732751369476
3050,2350.53028011322
3051,2351.2962851524353
3052,2352.0502898693085
3053,2352.808294773102
3054,2353.5822999477386
3055,2354.3623049259186
3056,2355.124310016632
3057,2355.906315088272
3058,2356.7103202342987
3059,2357.5163254737854
3060,2358.3003306388855
3061,2359.087335586548
3062,2359.866340637207
3063,2360.6293456554413
3064,2361.3973507881165
3065,2362.1743557453156
3066,2362.9463608264923
3067,2363.71936583519
3068,2364.5023708343506
3069,2365.282376050949
3070,2366.062381029129
3071,2366.852386236191
3072,2367.6543912887573
3073,2368.44539642334
3074,2369.228401660919
3075,2370.01140666008
3076,2370.7914118766785
3077,2371.5474166870117
3078,2372.306421518326
3079,2373.0784265995026
3080,2373.854431629181
3081,2374.602436542511
3082,2375.3394412994385
3083,2376.0854461193085
3084,2376.843451023102
3085,2377.6104559898376
3086,2378.3874611854553
3087,2379.1714663505554
3088,2379.939471244812
3089,2380.7144763469696
3090,2381.4954812526703
3091,2382.2744863033295
3092,2383.0584914684296
3093,2383.8484966754913
3094,2384.6445019245148
3095,2385.4455070495605
3096,2386.255512237549
3097,2387.067517518997
3098,2387.8635227680206
3099,2388.6485278606415
3100,2389.439532995224
3101,2390.2325382232666
3102,2391.0175433158875
3103,2391.8125483989716
3104,2392.616553544998
3105,2393.40855884552
3106,2394.195564031601
3107,2394.9835691452026
3108,2395.7845742702484
3109,2396.5845794677734
3110,2397.372584581375
3111,2398.1795897483826
3112,2398.995595216751
3113,2399.8156003952026
3114,2400.601605653763
3115,2401.3926107883453
3116,2402.1846158504486
3117,2402.9796209335327
3118,2403.7666261196136
3119,2404.5506312847137
3120,2405.3486363887787
3121,2406.1596417427063
3122,2406.9516468048096
3123,2407.726651906967
3124,2408.5076570510864
3125,2409.294661998749
3126,2410.0716671943665
3127,2410.841672182083
3128,2411.619677066803
3129,2412.4186823368073
3130,2413.203687429428
3131,2414.0026926994324
3132,2414.8176980018616
3133,2415.6227033138275
3134,2416.41370844841
3135,2417.213713645935
3136,2418.0257189273834
3137,2418.82772397995
3138,2419.6217291355133
3139,2420.39173412323
3140,2421.1457390785217
3141,2421.8977439403534
3142,2422.638748884201
3143,2423.3657536506653
3144,2424.0707581043243
3145,2424.7697627544403
3146,2425.4947674274445
3147,2426.2357721328735
3148,2427.0027770996094
3149,2427.8037824630737
3150,2428.6097877025604
3151,2429.395792722702
3152,2430.196797847748
3153,2431.011803150177
3154,2431.8228085041046
3155,2432.616813659668
3156,2433.4158189296722
3157,2434.2408242225647
3158,2435.0518295764923
3159,2435.8568346500397
3160,2436.691840171814
3161,2437.547845840454
3162,2438.4048511981964
3163,2439.23685669899
3164,2440.0788621902466
3165,2440.926867723465
3166,2441.746873140335
3167,2442.5688784122467
3168,2443.4028837680817
3169,2444.2498893737793
3170,2445.0658946037292
3171,2445.8859000205994
3172,2446.7069053649902
3173,2447.533910751343
3174,2448.343915939331
3175,2449.163921356201
3176,2449.995926618576
3177,2450.8019318580627
3178,2451.614937067032
3179,2452.437942504883
3180,2453.270947933197
3181,2454.078953266144
3182,2454.8999586105347
3183,2455.7209639549255
3184,2456.5379691123962
3185,2457.3359744548798
3186,2458.1449797153473
3187,2458.9579849243164
3188,2459.7599902153015
3189,2460.5739953517914
3190,2461.3990008831024
3191,2462.218006134033
3192,2463.0350115299225
3193,2463.873016834259
3194,2464.711022377014
3195,2465.529027700424
3196,2466.361032962799
3197,2467.1830384731293
3198,2467.9880435466766
3199,2468.7780487537384
3200,2469.586054086685
3201,2470.3800592422485
3202,2471.1700642108917
3203,2471.9410693645477
3204,2472.697074174881
3205,2473.458079099655
3206,2474.2370841503143
3207,2475.0230894088745
3208,2475.7950942516327
3209,2476.5770995616913
3210,2477.3721046447754
3211,2478.165109872818
3212,2478.962115049362
3213,2479.7821202278137
3214,2480.596125602722
3215,2481.414130926132
3216,2482.2241361141205
3217,2483.035141468048
3218,2483.853146791458
3219,2484.6551520824432
3220,2485.4631571769714
3221,2486.282162427902
3222,2487.1071679592133
3223,2487.91117310524
3224,2488.7021782398224
3225,2489.503183364868
3226,2490.324188709259
3227,2491.1381940841675
3228,2491.92919921875
3229,2492.734204530716
3230,2493.552209854126
3231,2494.3822152614594
3232,2495.1942205429077
3233,2496.0102257728577
3234,2496.8262310028076
3235,2497.6462364196777
3236,2498.4622416496277
3237,2499.299247264862
3238,2500.1452527046204
3239,2500.9932582378387
3240,2501.8072633743286
3241,2502.6132686138153
3242,2503.423274040222
3243,2504.2322793006897
3244,2505.0322844982147
3245,2505.8502898216248
3246,2506.6872951984406
3247,2507.516300678253
3248,2508.327305793762
3249,2509.132311105728
3250,2509.948316335678
3251,2510.7653217315674
3252,2511.5653269290924
3253,2512.3723320961
3254,2513.176337480545
3255,2513.9843425750732
3256,2514.787347793579
3257,2515.613353252411
3258,2516.4363584518433
3259,2517.241363763809
3260,2518.0323688983917
3261,2518.834374189377
3262,2519.6403794288635
3263,2520.451384782791
3264,2521.2563898563385
3265,2522.0643951892853
3266,2522.8944005966187
3267,2523.7294058799744
3268,2524.539411306381
3269,2525.3414163589478
3270,2526.148421764374
3271,2526.9754271507263
3272,2527.778432369232
3273,2528.6034376621246
3274,2529.4264430999756
3275,2530.2474484443665
3276,2531.0274534225464
3277,2531.7854583263397
3278,2532.525463104248
3279,2533.240467786789
3280,2533.95547246933
3281,2534.6554770469666
3282,2535.3374814987183
3283,2536.01548576355
3284,2536.7174904346466
3285,2537.4474952220917
3286,2538.18950009346
3287,2538.9655051231384
3288,2539.7635102272034
3289,2540.574515581131
3290,2541.3685207366943
3291,2542.1605257987976
3292,2542.9635310173035
3293,2543.7715363502502
3294,2544.5735414028168
3295,2545.36954665184
3296,2546.1815519332886
3297,2546.9875571727753
3298,2547.760562181473
3299,2548.516566991806
3300,2549.267571926117
3301,2550.0255768299103
3302,2550.7695817947388
3303,2551.527586698532
3304,2552.3005917072296
3305,2553.1025969982147
3306,2553.915602207184
3307,2554.712607383728
3308,2555.517612695694
3309,2556.3226177692413
3310,2557.13662314415
3311,2557.931628227234
3312,2558.717633485794
3313,2559.510638475418
3314,2560.320643901825
3315,2561.1246490478516
3316,2561.9216542243958
3317,2562.723659515381
3318,2563.5436646938324
3319,2564.3846702575684
3320,2565.1966755390167
3321,2565.9766805171967
3322,2566.7356855869293
3323,2567.5166907310486
3324,2568.2886955738068
3325,2569.0657007694244
3326,2569.8577058315277
3327,2570.6447110176086
3328,2571.4227159023285
3329,2572.1937210559845
3330,2572.9497258663177
3331,2573.696730852127
3332,2574.4517357349396
3333,2575.2107405662537
3334,2575.9697456359863
3335,2576.7457506656647
3336,2577.524755716324
3337,2578.2917606830597
3338,2579.051765680313
3339,2579.803770542145
3340,2580.546775341034
3341,2581.2987802028656
3342,2582.0597851276398
3343,2582.820790052414
3344,2583.5827951431274
3345,2584.3628001213074
3346,2585.150805234909
3347,2585.9078102111816
3348,2586.670815229416
3349,2587.4408202171326
3350,2588.216825246811
3351,2588.9838302135468
3352,2589.7638351917267
3353,2590.5518403053284
3354,2591.3528456687927
3355,2592.12385058403
3356,2592.906855583191
3357,2593.693860769272
3358,2594.491865873337
3359,2595.2818710803986
3360,2596.059876203537
3361,2596.8528814315796
3362,2597.6378865242004
3363,2598.3938913345337
3364,2599.153896331787
3365,2599.917901277542
3366,2600.694906234741
3367,2601.484911441803
3368,2602.2629165649414
3369,2603.0449216365814
3370,2603.8189265727997
3371,2604.565931558609
3372,2605.3239364624023
3373,2606.1029415130615
3374,2606.8679463863373
3375,2607.637951374054
3376,2608.429956674576
3377,2609.2179617881775
3378,2609.980966567993
3379,2610.7649717330933
3380,2611.554976940155
3381,2612.334981918335
3382,2613.115987062454
3383,2613.885992050171
3384,2614.6609971523285
3385,2615.419002056122
3386,2616.196007013321
3387,2616.9730122089386
3388,2617.745017051697
3389,2618.509021997452
3390,2619.2780270576477
3391,2620.056032180786
3392,2620.8150370121
3393,2621.574042081833
3394,2622.343047142029
3395,2623.1080520153046
3396,2623.865056991577
3397,2624.627061843872
3398,2625.3850667476654
3399,2626.142071723938
3400,2626.9050767421722
3401,2627.6810817718506
3402,2628.4660868644714
3403,2629.236091852188
3404,2630.0220968723297
3405,2630.8101019859314
3406,2631.5861070156097
3407,2632.349112033844
3408,2633.1321172714233
3409,2633.923122406006
3410,2634.6941273212433
3411,2635.4521322250366
3412,2636.2181372642517
3413,2637.0031423568726
3414,2637.7521471977234
3415,2638.509152173996
3416,2639.2811572551727
3417,2640.039162158966
3418,2640.7921669483185
3419,2641.5551719665527
3420,2642.321177005768
3421,2643.080181837082
3422,2643.8451867103577
3423,2644.608191728592
3424,2645.3731968402863
3425,2646.1342017650604
3426,2646.907206773758
3427,2647.689211845398
3428,2648.4772169589996
3429,2649.2622220516205
3430,2650.0642273426056
3431,2650.8622324466705
3432,2651.6442375183105
3433,2652.4342427253723
3434,2653.219247817993
3435,2653.9852526187897
3436,2654.7582578659058
3437,2655.5382628440857
3438,2656.314267873764
3439,2657.0872728824615
3440,2657.8702778816223
3441,2658.6562831401825
3442,2659.434288263321
3443,2660.2122931480408
3444,2661.0022983551025
3445,2661.796303510666
3446,2662.570308446884
3447,2663.3503136634827
3448,2664.141318798065
3449,2664.9283237457275
3450,2665.713329076767
3451,2666.528334379196
3452,2667.3523395061493
3453,2668.150344848633
3454,2668.952350139618
3455,2669.750355243683
3456,2670.5533604621887
3457,2671.342365503311
3458,2672.119370698929
3459,2672.9023756980896
3460,2673.6923809051514
3461,2674.477385997772
3462,2675.257390975952
3463,2676.044396162033
3464,2676.8354012966156
3465,2677.614406347275
3466,2678.393411397934
3467,2679.1764163970947
3468,2679.9644215106964
3469,2680.7354266643524
3470,2681.513431787491
3471,2682.2984368801117
3472,2683.0844419002533
3473,2683.8664469718933
3474,2684.651452064514
3475,2685.449457168579
3476,2686.2344622612
3477,2687.010467529297
3478,2687.8014726638794
3479,2688.5974776744843
3480,2689.3934829235077
3481,2690.18248796463
3482,2690.9804933071136
3483,2691.785498380661
3484,2692.5795035362244
3485,2693.369508743286
3486,2694.167513847351
3487,2694.9605190753937
3488,2695.7435240745544
3489,2696.536529302597
3490,2697.3325345516205
3491,2698.118539571762
3492,2698.9135448932648
3493,2699.7165501117706
3494,2700.5195553302765
3495,2701.3205604553223
3496,2702.1305656433105
3497,2702.957571029663
3498,2703.76357626915
3499,2704.5745816230774
3500,2705.3875868320465
3501,2706.1875920295715
3502,2706.9715971946716
3503,2707.7726023197174
3504,2708.585607767105
3505,2709.386612892151
3506,2710.1826181411743
3507,2710.9776232242584
3508,2711.766628265381
3509,2712.5396332740784
3510,2713.317638397217
3511,2714.1026434898376
3512,2714.888648748398
3513,2715.6736538410187
3514,2716.4566588401794
3515,2717.245663881302
3516,2718.0396690368652
3517,2718.814674139023
3518,2719.595679283142
3519,2720.395684480667
3520,2721.1876895427704
3521,2721.975694656372
3522,2722.7746999263763
3523,2723.5747051239014
3524,2724.3567101955414
3525,2725.144715309143
3526,2725.9237203598022
3527,2726.7027254104614
3528,2727.472730398178
3529,2728.2517354488373
3530,2729.049740791321
3531,2729.823745727539
3532,2730.592750787735
3533,2731.367755651474
3534,2732.1637609004974
3535,2732.9427659511566
3536,2733.733771085739
3537,2734.5247762203217
3538,2735.3067812919617
3539,2736.08278632164
3540,2736.8547914028168
3541,2737.6237964630127
3542,2738.39680147171
3543,2739.1778066158295
3544,2739.963811635971
3545,2740.7548167705536
3546,2741.529821872711
3547,2742.3138270378113
3548,2743.1218321323395
3549,2743.9188373088837
3550,2744.7058424949646
3551,2745.516847848892
3552,2746.337853193283
3553,2747.1418583393097
3554,2747.9458634853363
3555,2748.7608687877655
3556,2749.5608739852905
3557,2750.3478791713715
3558,2751.135884284973
3559,2751.9268894195557
3560,2752.7148945331573
3561,2753.502899646759
3562,2754.3019049167633
3563,2755.10791015625
3564,2755.886915206909
3565,2756.674920320511
3566,2757.4799253940582
3567,2758.27193069458
3568,2759.0449357032776
3569,2759.8289408683777
3570,2760.61994600296
3571,2761.3919508457184
3572,2762.1729559898376
3573,2762.964961051941
3574,2763.7579662799835
3575,2764.538971424103
3576,2765.320976495743
3577,2766.101981639862
3578,2766.8889865875244
3579,2767.665991783142
3580,2768.434996843338
3581,2769.2160017490387
3582,2770.0110070705414
3583,2770.794012069702
3584,2771.592017173767
3585,2772.3890223503113
3586,2773.177027463913
3587,2773.962032556534
3588,2774.7580378055573
3589,2775.562042951584
3590,2776.356048107147
3591,2777.1520533561707
3592,2777.9550585746765
3593,2778.766063928604
3594,2779.5570690631866
3595,2780.3570742607117
3596,2781.1430792808533
3597,2781.9290845394135
3598,2782.705089569092
3599,2783.4850945472717
3600,2784.2710995674133
3601,2785.0501046180725
3602,2785.851109981537
3603,2786.6761152744293
3604,2787.4901206493378
3605,2788.2881257534027
3606,2789.0941309928894
3607,2789.900136232376
3608,2790.6781413555145
3609,2791.452146291733
3610,2792.2261514663696
3611,2792.997156381607
3612,2793.7551612854004
3613,2794.5221662521362
3614,2795.335171699524
3615,2796.156177043915
3616,2796.9921822547913
3617,2797.8141877651215
3618,2798.634192943573
3619,2799.4511983394623
3620,2800.252203464508
3621,2801.0652089118958
3622,2801.8692140579224
3623,2802.6532192230225
3624,2803.42622423172
3625,2804.2122292518616
3626,2805.008234500885
3627,2805.7742395401
3628,2806.5482444763184
3629,2807.3292496204376
3630,2808.1302547454834
3631,2808.9252598285675
3632,2809.7122650146484
3633,2810.4992702007294
3634,2811.2982754707336
3635,2812.0752804279327
3636,2812.8612854480743
3637,2813.6652908325195
3638,2814.4832961559296
3639,2815.2833013534546
3640,2816.0813064575195
3641,2816.880311727524
3642,2817.6763167381287
3643,2818.4513218402863
3644,2819.225327014923
3645,2820.0113320350647
3646,2820.802337169647
3647,2821.59534239769
3648,2822.4163477420807
3649,2823.22935295105
3650,2824.028358221054
3651,2824.8403635025024
3652,2825.6503686904907
3653,2826.4593739509583
3654,2827.2413790225983
3655,2828.0193841457367
3656,2828.8043892383575
3657,2829.577394247055
3658,2830.3453991413116
3659,2831.1164042949677
3660,2831.895409345627
3661,2832.654414176941
3662,2833.4304192066193
3663,2834.2134244441986
3664,2834.9984295368195
3665,2835.766434431076
3666,2836.5404393672943
3667,2837.3294446468353
3668,2838.117449760437
3669,2838.896454811096
3670,2839.682459831238
3671,2840.471465110779
3672,2841.264470100403
3673,2842.0384752750397
3674,2842.832480430603
3675,2843.6314854621887
3676,2844.425490617752
3677,2845.215495824814
3678,2846.007500886917
3679,2846.786506175995
3680,2847.558511018753
3681,2848.3345160484314
3682,2849.11452126503
3683,2849.8805260658264
3684,2850.6505312919617
3685,2851.421536207199
3686,2852.187541246414
3687,2852.95254611969
3688,2853.726551294327
3689,2854.5115563869476
3690,2855.284561395645
3691,2856.0585663318634
3692,2856.8385713100433
3693,2857.6325764656067
3694,2858.418581724167
3695,2859.21058678627
3696,2860.0015919208527
3697,2860.784597158432
3698,2861.5556020736694
3699,2862.3366072177887
3700,2863.12061214447
3701,2863.891617298126
3702,2864.6706223487854
3703,2865.456627368927
3704,2866.2336325645447
3705,2867.0086374282837
3706,2867.787642478943
3707,2868.550647497177
3708,2869.299652338028
3709,2870.048657178879
3710,2870.816662311554
3711,2871.5886673927307
3712,2872.3686723709106
3713,2873.1326773166656
3714,2873.8836822509766
3715,2874.6356871128082
3716,2875.3886919021606
3717,2876.1426968574524
3718,2876.899701833725
3719,2877.660706758499
3720,2878.427711725235
3721,2879.2107167243958
3722,2879.9927220344543
3723,2880.765727043152
3724,2881.5497319698334
3725,2882.327737092972
3726,2883.1077420711517
3727,2883.8787472248077
3728,2884.6427521705627
3729,2885.4247572422028
3730,2886.216762304306
3731,2886.995767354965
3732,2887.783772468567
3733,2888.5777776241302
3734,2889.3607828617096
3735,2890.1437878608704
3736,2890.941793203354
3737,2891.738798379898
3738,2892.5248034000397
3739,2893.321808576584
3740,2894.119813680649
3741,2894.8998188972473
3742,2895.6768238544464
3743,2896.4608290195465
3744,2897.2608342170715
3745,2898.056839466095
3746,2898.8448445796967
3747,2899.646849632263
3748,2900.449854850769
3749,2901.239860057831
3750,2902.0228650569916
3751,2902.8098702430725
3752,2903.601875305176
3753,2904.384880542755
3754,2905.18288564682
3755,2905.9798908233643
3756,2906.7688961029053
3757,2907.546900987625
3758,2908.3119060993195
3759,2909.077910900116
3760,2909.830915927887
3761,2910.5959208011627
3762,2911.3489258289337
3763,2912.0779304504395
3764,2912.801935195923
3765,2913.511939764023
3766,2914.1989443302155
3767,2914.898948907852
3768,2915.6359536647797
3769,2916.4339587688446
3770,2917.247964143753
3771,2918.068969488144
3772,2918.886974811554
3773,2919.6879799365997
3774,2920.502985239029
3775,2921.3269906044006
3776,2922.135995864868
3777,2922.9290010929108
3778,2923.736006259918
3779,2924.5670115947723
3780,2925.4020171165466
3781,2926.2380225658417
3782,2927.08602809906
3783,2927.93803358078
3784,2928.7730391025543
3785,2929.6070444583893
3786,2930.4480500221252
3787,2931.3090555667877
3788,2932.153060913086
3789,2933.0010664463043
3790,2933.8540720939636
3791,2934.687077522278
3792,2935.499082803726
3793,2936.331088066101
3794,2937.195093870163
3795,2938.0710995197296
3796,2938.9101049900055
3797,2939.770110607147
3798,2940.643116235733
3799,2941.516121864319
3800,2942.3741273880005
3801,2943.235132932663
3802,2944.0971386432648
3803,2944.9401440620422
3804,2945.7731494903564
3805,2946.6251549720764
3806,2947.4971606731415
3807,2948.3561663627625
3808,2949.1891717910767
3809,2950.0411772727966
3810,2950.902182817459
3811,2951.7531883716583
3812,2952.585193872452
3813,2953.411199092865
3814,2954.2352044582367
3815,2955.0632100105286
3816,2955.8952152729034
3817,2956.750221014023
3818,2957.620226621628
3819,2958.4802322387695
3820,2959.3172376155853
3821,2960.1582429409027
3822,2961.0152485370636
3823,2961.8642542362213
3824,2962.7002596855164
3825,2963.5592651367188
3826,2964.433270931244
3827,2965.280276298523
3828,2966.1102817058563
3829,2966.950287103653
3830,2967.8032927513123
3831,2968.6542983055115
3832,2969.4883036613464
3833,2970.328309059143
3834,2971.169314622879
3835,2971.9763197898865
3836,2972.7663249969482
3837,2973.5303299427032
3838,2974.2703347206116
3839,2974.992339372635
3840,2975.6983439922333
3841,2976.4103486537933
3842,2977.167353630066
3843,2977.9753589630127
3844,2978.805364370346
3845,2979.6313695907593
3846,2980.460375070572
3847,2981.2723803520203
3848,2982.0743856430054
3849,2982.880390882492
3850,2983.694396018982
3851,2984.527401447296
3852,2985.3784070014954
3853,2986.222412586212
3854,2987.0064175128937
3855,2987.768422603607
3856,2988.5134274959564
3857,2989.229432106018
3858,2989.923436641693
3859,2990.616441011429
3860,2991.3364458084106
3861,2992.058450460434
3862,2992.7624549865723
3863,2993.4554595947266
3864,2994.182464122772
3865,2994.958469390869
3866,2995.7714745998383
3867,2996.6024799346924
3868,2997.4154851436615
3869,2998.244490623474
3870,2999.096496105194
3871,2999.958501815796
3872,3000.826507329941
3873,3001.6535127162933
3874,3002.467518091202
3875,3003.27752327919
3876,3004.134528875351
3877,3005.0305347442627
3878,3005.9085404872894
3879,3006.751545906067
3880,3007.550551176071
3881,3008.3185560703278
3882,3009.068561077118
3883,3009.8075659275055
3884,3010.5355706214905
3885,3011.2625753879547
3886,3011.9545798301697
3887,3012.6525843143463
3888,3013.404589176178
3889,3014.202594280243
3890,3015.04859995842
3891,3015.920605659485
3892,3016.7936112880707
3893,3017.6326167583466
3894,3018.439621925354
3895,3019.2456271648407
3896,3020.057632446289
3897,3020.8746378421783
3898,3021.670642852783
3899,3022.460648059845
3900,3023.2566533088684
3901,3024.065658569336
3902,3024.8516635894775
3903,3025.6536688804626
3904,3026.45867395401
3905,3027.248679161072
3906,3028.029684305191
3907,3028.8266894817352
3908,3029.6516947746277
3909,3030.483700275421
3910,3031.315705537796
3911,3032.1397109031677
3912,3032.953716278076
3913,3033.741721391678
3914,3034.5247263908386
3915,3035.3117315769196
3916,3036.128736972809
3917,3036.9347422122955
3918,3037.728747367859
3919,3038.5277523994446
3920,3039.3297576904297
3921,3040.11576294899
3922,3040.8937678337097
3923,3041.692773103714
3924,3042.4867782592773
3925,3043.2847833633423
3926,3044.0997886657715
3927,3044.9427943229675
3928,3045.7537994384766
3929,3046.5588047504425
3930,3047.368809938431
3931,3048.1748151779175
3932,3048.957820415497
3933,3049.754825592041
3934,3050.5718307495117
3935,3051.386836051941
3936,3052.1848413944244
3937,3052.996846675873
3938,3053.8318519592285
3939,3054.6868574619293
3940,3055.5068628787994
3941,3056.332868337631
3942,3057.1598737239838
3943,3057.9738788604736
3944,3058.7818841934204
3945,3059.607889652252
3946,3060.4518949985504
3947,3061.2799003124237
3948,3062.1139059066772
3949,3062.9619114398956
3950,3063.7839167118073
3951,3064.594922065735
3952,3065.42892742157
3953,3066.2739329338074
3954,3067.095938205719
3955,3067.9239435195923
3956,3068.7609491348267
3957,3069.570954322815
3958,3070.3849596977234
3959,3071.227965116501
3960,3072.063970565796
3961,3072.8709757328033
3962,3073.689980983734
3963,3074.5169863700867
3964,3075.320991754532
3965,3076.120996952057
3966,3076.934002161026
3967,3077.737007379532
3968,3078.524012565613
3969,3079.324017763138
3970,3080.1440229415894
3971,3080.9660284519196
3972,3081.7690336704254
3973,3082.5720388889313
3974,3083.3800439834595
3975,3084.186049222946
3976,3084.9700543880463
3977,3085.757059574127
3978,3086.558064699173
3979,3087.355069875717
3980,3088.1410751342773
3981,3088.947080373764
3982,3089.7590856552124
3983,3090.5530908107758
3984,3091.3380959033966
3985,3092.125100851059
3986,3092.9311060905457
3987,3093.7081112861633
3988,3094.5021164417267
3989,3095.317121744156
3990,3096.1491270065308
3991,3096.948132276535
3992,3097.7651376724243
3993,3098.592143058777
3994,3099.407148361206
3995,3100.218153476715
3996,3101.0471589565277
3997,3101.8731644153595
3998,3102.675169467926
3999,3103.4701747894287
4000,3104.2711799144745
4001,3105.0921852588654
4002,3105.895190477371
4003,3106.703195810318
4004,3107.5312011241913
4005,3108.376206636429
4006,3109.1852118968964
4007,3109.994217157364
4008,3110.8172223567963
4009,3111.6322276592255
4010,3112.444232940674
4011,3113.2762384414673
4012,3114.118243932724
4013,3114.944249153137
4014,3115.7662546634674
4015,3116.606260061264
4016,3117.4512655735016
4017,3118.273270845413
4018,3119.1102764606476
4019,3119.9622819423676
4020,3120.8122873306274
4021,3121.6472928524017
4022,3122.5202984809875
4023,3123.389304161072
4024,3124.2313096523285
4025,3125.077315092087
4026,3125.9343206882477
4027,3126.79532623291
4028,3127.6433317661285
4029,3128.519337415695
4030,3129.3893432617188
4031,3130.2263486385345
4032,3131.0503540039062
4033,3131.888359308243
4034,3132.703364610672
4035,3133.5043699741364
4036,3134.3093750476837
4037,3135.126380443573
4038,3135.939385652542
4039,3136.731390953064
4040,3137.5483961105347
4041,3138.380401611328
4042,3139.1934068202972
4043,3140.006412267685
4044,3140.8334176540375
4045,3141.676423072815
4046,3142.4904284477234
4047,3143.3084337711334
4048,3144.128438949585
4049,3144.9544444084167
4050,3145.7554495334625
4051,3146.5534546375275
4052,3147.354460000992
4053,3148.1584651470184
4054,3148.9474704265594
4055,3149.751475572586
4056,3150.564480781555
4057,3151.3764860630035
4058,3152.174491405487
4059,3152.9844965934753
4060,3153.795501947403
4061,3154.5815069675446
4062,3155.3485119342804
4063,3156.126517057419
4064,3156.9225220680237
4065,3157.744527578354
4066,3158.573532819748
4067,3159.40153837204
4068,3160.2085435390472
4069,3161.024548768997
4070,3161.847554206848
4071,3162.67155957222
4072,3163.48956489563
4073,3164.338570356369
4074,3165.176575899124
4075,3166.0195813179016
4076,3166.8555867671967
4077,3167.704592227936
4078,3168.5465977191925
4079,3169.358603000641
4080,3170.1726083755493
4081,3170.994613647461
4082,3171.8416192531586
4083,3172.651624441147
4084,3173.461629629135
4085,3174.282634973526
4086,3175.1106402873993
4087,3175.926645755768
4088,3176.737650871277
4089,3177.5696563720703
4090,3178.416661977768
4091,3179.2386672496796
4092,3180.082672595978
4093,3180.9446783065796
4094,3181.794683933258
4095,3182.6216893196106
4096,3183.4556946754456
4097,3184.295700073242
4098,3185.1317055225372
4099,3185.9517109394073
4100,3186.772716283798
4101,3187.612721681595
4102,3188.4387271404266
4103,3189.2447323799133
4104,3190.0567376613617
4105,3190.8767428398132
4106,3191.715748310089
4107,3192.5247535705566
4108,3193.3307588100433
4109,3194.144764184952
4110,3194.9687695503235
4111,3195.77077460289
4112,3196.567779779434
4113,3197.3697850704193
4114,3198.18879032135
4115,3198.9927957057953
4116,3199.8078010082245
4117,3200.6548063755035
4118,3201.522812128067
4119,3202.34881734848
4120,3203.177822828293
4121,3203.995828151703
4122,3204.808833360672
4123,3205.605838537216
4124,3206.4228439331055
4125,3207.2458493709564
4126,3208.064854621887
4127,3208.8798599243164
4128,3209.723865509033
4129,3210.5988709926605
4130,3211.4658768177032
4131,3212.3088822364807
4132,3213.1588876247406
4133,3214.0328934192657
4134,3214.8798990249634
4135,3215.7109043598175
4136,3216.5399096012115
4137,3217.376915216446
4138,3218.2079205513
4139,3219.0229258537292
4140,3219.862931251526
4141,3220.73393702507
4142,3221.603942632675
4143,3222.4369480609894
4144,3223.278953552246
4145,3224.1239590644836
4146,3224.9459643363953
4147,3225.767969608307
4148,3226.607975244522
4149,3227.4539806842804
4150,3228.2849860191345
4151,3229.1179914474487
4152,3229.9619970321655
4153,3230.7930023670197
4154,3231.618007659912
4155,3232.460013151169
4156,3233.3030185699463
4157,3234.1180238723755
4158,3234.932029247284
4159,3235.749034643173
4160,3236.5490398406982
4161,3237.352045059204
4162,3238.176050424576
4163,3239.0190558433533
4164,3239.8520612716675
4165,3240.6860666275024
4166,3241.5400722026825
4167,3242.4070777893066
4168,3243.2430832386017
4169,3244.0850887298584
4170,3244.948094367981
4171,3245.7750997543335
4172,3246.610105276108
4173,3247.4661107063293
4174,3248.311116218567
4175,3249.1351215839386
4176,3249.970127105713
4177,3250.8101325035095
4178,3251.624137878418
4179,3252.432142972946
4180,3253.274148464203
4181,3254.1361541748047
4182,3254.9701595306396
4183,3255.82616519928
4184,3256.668170452118
4185,3257.488175868988
4186,3258.311181306839
4187,3259.1521866321564
4188,3259.9871921539307
4189,3260.8091974258423
4190,3261.633202791214
4191,3262.4522082805634
4192,3263.25421333313
4193,3264.059218645096
4194,3264.8652238845825
4195,3265.6622290611267
4196,3266.461234331131
4197,3267.2732396125793
4198,3268.093244791031
4199,3268.9022500514984
4200,3269.7272555828094
4201,3270.5572607517242
4202,3271.3922662734985
4203,3272.2052714824677
4204,3272.99627661705
4205,3273.7752816677094
4206,3274.583287000656
4207,3275.409292459488
4208,3276.253297805786
4209,3277.114303588867
4210,3277.972309112549
4211,3278.7993144989014
4212,3279.634319782257
4213,3280.46532535553
4214,3281.306330680847
4215,3282.158336162567
4216,3282.9953417778015
4217,3283.835347175598
4218,3284.679352760315
4219,3285.541358232498
4220,3286.385363817215
4221,3287.237369298935
4222,3288.0643746852875
4223,3288.886379957199
4224,3289.722385406494
4225,3290.5553908348083
4226,3291.3733961582184
4227,3292.205401659012
4228,3293.038407087326
4229,3293.8554122447968
4230,3294.6534175872803
4231,3295.456422805786
4232,3296.2894282341003
4233,3297.1354336738586
4234,3297.9564390182495
4235,3298.797444343567
4236,3299.6424498558044
4237,3300.476455450058
4238,3301.290460586548
4239,3302.120465993881
4240,3302.9424715042114
4241,3303.7454767227173
4242,3304.5424818992615
4243,3305.3374869823456
4244,3306.1384921073914
4245,3306.928497314453
4246,3307.733502626419
4247,3308.5485079288483
4248,3309.364513158798
4249,3310.168518304825
4250,3310.9825236797333
4251,3311.8155291080475
4252,3312.661534547806
4253,3313.4865398406982
4254,3314.313545227051
4255,3315.1405506134033
4256,3315.9785561561584
4257,3316.786561489105
4258,3317.6015667915344
4259,3318.4305720329285
4260,3319.2795774936676
4261,3320.10658288002
4262,3320.9335882663727
4263,3321.7755937576294
4264,3322.5975992679596
4265,3323.4086043834686
4266,3324.2326097488403
4267,3325.0836153030396
4268,3325.9196207523346
4269,3326.7556262016296
4270,3327.583631515503
4271,3328.422636985779
4272,3329.2256422042847
4273,3330.039647579193
4274,3330.874652862549
4275,3331.709658384323
4276,3332.527663707733
4277,3333.350669145584
4278,3334.1766743659973
4279,3334.9986798763275
4280,3335.8126850128174
4281,3336.6326904296875
4282,3337.45569562912
4283,3338.27770113945
4284,3339.0837063789368
4285,3339.8977115154266
4286,3340.7367169857025
4287,3341.5807225704193
4288,3342.3987278938293
4289,3343.224733352661
4290,3344.0577387809753
4291,3344.8787438869476
4292,3345.6997492313385
4293,3346.554754972458
4294,3347.4357607364655
4295,3348.2877662181854
4296,3349.1207716464996
4297,3349.9447770118713
4298,3350.7367820739746
4299,3351.528787136078
4300,3352.311792373657
4301,3353.0857973098755
4302,3353.8578023910522
4303,3354.6178073883057
4304,3355.3698122501373
4305,3356.1278171539307
4306,3356.898822069168
4307,3357.69082736969
4308,3358.4848325252533
4309,3359.2738375663757
4310,3360.0608427524567
4311,3360.834847688675
4312,3361.603852748871
4313,3362.38285779953
4314,3363.1748628616333
4315,3363.9508678913116
4316,3364.7458732128143
4317,3365.54887843132
4318,3366.3748836517334
4319,3367.185889005661
4320,3367.9968943595886
4321,3368.823899745941
4322,3369.6499049663544
4323,3370.462910413742
4324,3371.2859156131744
4325,3372.1239211559296
4326,3372.956926584244
4327,3373.769931793213
4328,3374.5939371585846
4329,3375.4359426498413
4330,3376.274948120117
4331,3377.1129536628723
4332,3377.944958925247
4333,3378.7439641952515
4334,3379.529969215393
4335,3380.3089742660522
4336,3381.0519790649414
4337,3381.771983861923
4338,3382.517988681793
4339,3383.2949936389923
4340,3384.087998867035
4341,3384.9150042533875
4342,3385.7610096931458
4343,3386.597015142441
4344,3387.4130206108093
4345,3388.2360258102417
4346,3389.0780313014984
4347,3389.9130368232727
4348,3390.7290420532227
4349,3391.5730476379395
4350,3392.418053150177
4351,3393.2580585479736
4352,3394.0970640182495
4353,3394.945069551468
4354,3395.799075126648
4355,3396.630080461502
4356,3397.469085931778
4357,3398.3240914344788
4358,3399.190097093582
4359,3400.043102502823
4360,3400.868108034134
4361,3401.658113002777
4362,3402.4261181354523
4363,3403.176122903824
4364,3403.9331278800964
4365,3404.6971328258514
4366,3405.488137960434
4367,3406.285143136978
4368,3407.092148542404
4369,3407.9181537628174
4370,3408.7541592121124
4371,3409.5771646499634
4372,3410.361169576645
4373,3411.1151745319366
4374,3411.870179414749
4375,3412.626184463501
4376,3413.3821892738342
4377,3414.156194448471
4378,3414.970199584961
4379,3415.7762048244476
4380,3416.5602099895477
4381,3417.300214767456
4382,3418.018219470978
4383,3418.740224123001
4384,3419.4642288684845
4385,3420.188233613968
4386,3420.933238506317
4387,3421.6912434101105
4388,3422.457248210907
4389,3423.2472534179688
4390,3424.0402586460114
4391,3424.8342638015747
4392,3425.612268924713
4393,3426.377273797989
4394,3427.136278629303
4395,3427.8992836475372
4396,3428.6632885932922
4397,3429.4162936210632
4398,3430.1702983379364
4399,3430.9203033447266
4400,3431.67630815506
4401,3432.4383132457733
4402,3433.203318119049
4403,3433.9713232517242
4404,3434.7783284187317
4405,3435.608333826065
4406,3436.465339422226
4407,3437.2933447360992
4408,3438.08034992218
4409,3438.8573548793793
4410,3439.614359855652
4411,3440.3613646030426
4412,3441.0933694839478
4413,3441.834374189377
4414,3442.5933792591095
4415,3443.3833842277527
4416,3444.184389591217
4417,3444.9813947677612
4418,3445.7733998298645
4419,3446.571405172348
4420,3447.3764102458954
4421,3448.1784155368805
4422,3448.9654207229614
4423,3449.7554256916046
4424,3450.5614309310913
4425,3451.3614361286163
4426,3452.141441345215
4427,3452.9274463653564
4428,3453.7144515514374
4429,3454.485456466675
4430,3455.2524614334106
4431,3456.017466545105
4432,3456.7904715538025
4433,3457.542476415634
4434,3458.2974812984467
4435,3459.071486234665
4436,3459.858491420746
4437,3460.6314964294434
4438,3461.4135015010834
4439,3462.2025067806244
4440,3463.0105118751526
4441,3463.8005170822144
4442,3464.588522195816
4443,3465.378527402878
4444,3466.1645324230194
4445,3466.936537504196
4446,3467.7255425453186
4447,3468.5285477638245
4448,3469.322552919388
4449,3470.106558084488
4450,3470.8895630836487
4451,3471.669568300247
4452,3472.429573059082
4453,3473.1865780353546
4454,3473.9375829696655
4455,3474.690587759018
4456,3475.438592672348
4457,3476.189597606659
4458,3476.9496026039124
4459,3477.7006075382233
4460,3478.43261218071
4461,3479.1696169376373
4462,3479.9206218719482
4463,3480.652626514435
4464,3481.3776314258575
4465,3482.112636089325
4466,3482.8496408462524
4467,3483.575645685196
4468,3484.3116505146027
4469,3485.051655292511
4470,3485.7966599464417
4471,3486.524664878845
4472,3487.2476694583893
4473,3487.9756741523743
4474,3488.6996788978577
4475,3489.4176836013794
4476,3490.1506884098053
4477,3490.9036931991577
4478,3491.651698112488
4479,3492.4057030677795
4480,3493.163707971573
4481,3493.929713010788
4482,3494.703717947006
4483,3495.483722925186
4484,3496.2797281742096
4485,3497.059733390808
4486,3497.8387384414673
4487,3498.616743326187
4488,3499.386748313904
4489,3500.1537532806396
4490,3500.938758611679
4491,3501.7427637577057
4492,3502.534768819809
4493,3503.338774204254
4494,3504.155779361725
4495,3504.9537847042084
4496,3505.7437896728516
4497,3506.539794921875
4498,3507.3398001194
4499,3508.126805305481
4500,3508.9188103675842
4501,3509.7148156166077
4502,3510.523820877075
4503,3511.3318259716034
4504,3512.1528313159943
4505,3512.9728367328644
4506,3513.7898421287537
4507,3514.596847295761
4508,3515.4118525981903
4509,3516.233857870102
4510,3517.050863265991
4511,3517.848868370056
4512,3518.637873649597
4513,3519.4298787117004
4514,3520.201883792877
4515,3520.9778888225555
4516,3521.764893770218
4517,3522.5708990097046
4518,3523.355904340744
4519,3524.1499094963074
4520,3524.958914756775
4521,3525.774919986725
4522,3526.582925081253
4523,3527.402930498123
4524,3528.2179358005524
4525,3529.006940841675
4526,3529.7709460258484
4527,3530.5319509506226
4528,3531.3129558563232
4529,3532.081960916519
4530,3532.851965904236
4531,3533.635971069336
4532,3534.43497633934
4533,3535.222981452942
4534,3536.012986421585
4535,3536.8249917030334
4536,3537.640997171402
4537,3538.4430022239685
4538,3539.2450075149536
4539,3540.057012796402
4540,3540.844017982483
4541,3541.618022918701
4542,3542.3930280208588
4543,3543.169033050537
4544,3543.9370379447937
4545,3544.7080430984497
4546,3545.4780480861664
4547,3546.233052968979
4548,3547.0000579357147
4549,3547.7750630378723
4550,3548.5540680885315
4551,3549.3150730133057
4552,3550.0870780944824
4553,3550.8660831451416
4554,3551.663088321686
4555,3552.4460933208466
4556,3553.24209856987
4557,3554.0461037158966
4558,3554.843108892441
4559,3555.6291139125824
4560,3556.4321191310883
4561,3557.2331244945526
4562,3558.011129617691
4563,3558.773134469986
4564,3559.5381393432617
4565,3560.317144393921
4566,3561.088149547577
4567,3561.869154691696
4568,3562.667159795761
4569,3563.472165107727
4570,3564.2771701812744
4571,3565.1021757125854
4572,3565.9261808395386
4573,3566.7311861515045
4574,3567.537191390991
4575,3568.3491966724396
4576,3569.158201932907
4577,3569.9442071914673
4578,3570.7412123680115
4579,3571.5542175769806
4580,3572.346222639084
4581,3573.1412279605865
4582,3573.945233106613
4583,3574.7312381267548
4584,3575.5182433128357
4585,3576.3082485198975
4586,3577.1112537384033
4587,3577.9012587070465
4588,3578.6832637786865
4589,3579.4542689323425
4590,3580.196273803711
4591,3580.9182784557343
4592,3581.6492831707
4593,3582.3942880630493
4594,3583.1582930088043
4595,3583.9422981739044
4596,3584.7273032665253
4597,3585.518308401108
4598,3586.3033134937286
4599,3587.092318534851
4600,3587.8863236904144
4601,3588.6663286685944
4602,3589.4533338546753
4603,3590.241338968277
4604,3591.0243442058563
4605,3591.8133492469788
4606,3592.613354444504
4607,3593.412359714508
4608,3594.205364704132
4609,3595.0093700885773
4610,3595.810375213623
4611,3596.610380411148
4612,3597.390385389328
4613,3598.174390554428
4614,3598.9523956775665
4615,3599.720400571823
4616,3600.484405517578
4617,3601.269410610199
4618,3602.0644159317017
4619,3602.8574209213257
4620,3603.641426086426
4621,3604.4394314289093
4622,3605.240436553955
4623,3606.0334417819977
4624,3606.8194468021393
4625,3607.6114518642426
4626,3608.3984570503235
4627,3609.16846203804
4628,3609.9294669628143
4629,3610.6954720020294
4630,3611.4754769802094
4631,3612.2514820098877
4632,3613.0404872894287
4633,3613.8394923210144
4634,3614.616497516632
4635,3615.4095027446747
4636,3616.1915078163147
4637,3616.962512731552
4638,3617.7405178546906
4639,3618.5185227394104
4640,3619.3035278320312
4641,3620.080533027649
4642,3620.872538089752
4643,3621.678543329239
4644,3622.4765486717224
4645,3623.2795538902283
4646,3624.082559108734
4647,3624.857563972473
4648,3625.6415691375732
4649,3626.4355742931366
4650,3627.2235794067383
4651,3627.998584508896
4652,3628.775589466095
4653,3629.559594631195
4654,3630.3295996189117
4655,3631.088604450226
4656,3631.8486094474792
4657,3632.6116144657135
4658,3633.3726193904877
4659,3634.1386244297028
4660,3634.9246294498444
4661,3635.694634437561
4662,3636.4716396331787
4663,3637.2566447257996
4664,3638.032649755478
4665,3638.807654619217
4666,3639.5816597938538
4667,3640.352664709091
4668,3641.126669883728
4669,3641.8946747779846
4670,3642.667679786682
4671,3643.4226846694946
4672,3644.1966898441315
4673,3644.9736948013306
4674,3645.7396998405457
4675,3646.5117049217224
4676,3647.2917098999023
4677,3648.080714941025
4678,3648.856719970703
4679,3649.6367251873016
4680,3650.423730134964
4681,3651.1857352256775
4682,3651.9447400569916
4683,3652.7147450447083
4684,3653.4767501354218
4685,3654.236755132675
4686,3654.9947600364685
4687,3655.752764940262
4688,3656.5067698955536
4689,3657.2637746334076
4690,3658.0357797145844
4691,3658.808784723282
4692,3659.5887899398804
4693,3660.371794939041
4694,3661.154799938202
4695,3661.9118049144745
4696,3662.6768097877502
4697,3663.4478149414062
4698,3664.198819875717
4699,3664.9358246326447
4700,3665.674829483032
4701,3666.419834136963
4702,3667.153839111328
4703,3667.8838436603546
4704,3668.6328485012054
4705,3669.4028537273407
4706,3670.1628584861755
4707,3670.92586350441
4708,3671.703868627548
4709,3672.488873720169
4710,3673.2628786563873
4711,3674.047883749008
4712,3674.840888977051
4713,3675.622894048691
4714,3676.406899213791
4715,3677.198904275894
4716,3677.9949095249176
4717,3678.769914627075
4718,3679.550919532776
4719,3680.331924676895
4720,3681.114929676056
4721,3681.8899347782135
4722,3682.6739399433136
4723,3683.4589450359344
4724,3684.230950117111
4725,3685.010955095291
4726,3685.8029601573944
4727,3686.6079654693604
4728,3687.396970510483
4729,3688.192975759506
4730,3688.979980945587
4731,3689.762985944748
4732,3690.5569911003113
4733,3691.3579964637756
4734,3692.1410014629364
4735,3692.929006576538
4736,3693.724011659622
4737,3694.513016939163
4738,3695.3060219287872
4739,3696.09902715683
4740,3696.891032218933
4741,3697.6850373744965
4742,3698.486042737961
4743,3699.3000478744507
4744,3700.1000530719757
4745,3700.904058456421
4746,3701.702063560486
4747,3702.491068840027
4748,3703.265073776245
4749,3704.048078775406
4750,3704.832083940506
4751,3705.5970888137817
4752,3706.352093935013
4753,3707.1200988292694
4754,3707.910104036331
4755,3708.7041091918945
4756,3709.5021142959595
4757,3710.2821192741394
4758,3711.057124376297
4759,3711.8331294059753
4760,3712.6121344566345
4761,3713.388139486313
4762,3714.172144651413
4763,3714.967149734497
4764,3715.7711551189423
4765,3716.5711603164673
4766,3717.3611652851105
4767,3718.1611704826355
4768,3718.9861760139465
4769,3719.8121812343597
4770,3720.616186618805
4771,3721.4251918792725
4772,3722.267197370529
4773,3723.127202987671
4774,3723.959208250046
4775,3724.8022136688232
4776,3725.636219263077
4777,3726.4522244930267
4778,3727.2552297115326
4779,3728.06623506546
4780,3728.8892402648926
4781,3729.6892454624176
4782,3730.506250858307
4783,3731.337256193161
4784,3732.1692616939545
4785,3732.9902670383453
4786,3733.8242723941803
4787,3734.6442778110504
4788,3735.453283071518
4789,3736.2652883529663
4790,3737.0802936553955
4791,3737.886298894882
4792,3738.687304019928
4793,3739.5123093128204
4794,3740.360314846039
4795,3741.214320421219
4796,3742.060325860977
4797,3742.8903312683105
4798,3743.7153367996216
4799,3744.52334189415
4800,3745.302346944809
4801,3746.0853521823883
4802,3746.888357400894
4803,3747.707362651825
4804,3748.520367860794
4805,3749.330373287201
4806,3750.1503784656525
4807,3750.9703838825226
4808,3751.77738904953
4809,3752.5863943099976
4810,3753.3903996944427
4811,3754.177404642105
4812,3754.97740983963
4813,3755.7764151096344
4814,3756.5704202651978
4815,3757.364425420761
4816,3758.1744306087494
4817,3758.9964361190796
4818,3759.803441286087
4819,3760.5994465351105
4820,3761.406451702118
4821,3762.224457025528
4822,3763.006462097168
4823,3763.7764670848846
4824,3764.5514721870422
4825,3765.3224771022797
4826,3766.0974822044373
4827,3766.859487056732
4828,3767.6274921894073
4829,3768.394497156143
4830,3769.145502090454
4831,3769.909507036209
4832,3770.6875121593475
4833,3771.4655170440674
4834,3772.238522052765
4835,3773.0315272808075
4836,3773.825532436371
4837,3774.6135375499725
4838,3775.3935425281525
4839,3776.16854763031
4840,3776.9545528888702
4841,3777.7255578041077
4842,3778.5075628757477
4843,3779.29656791687
4844,3780.091573238373
4845,3780.8715782165527
4846,3781.6625833511353
4847,3782.4425885677338
4848,3783.218593597412
4849,3783.995598554611
4850,3784.752603530884
4851,3785.4846081733704
4852,3786.205612897873
4853,3786.932617664337
4854,3787.6916224956512
4855,3788.458627462387
4856,3789.227632522583
4857,3790.0106377601624
4858,3790.780642747879
4859,3791.539647579193
4860,3792.292652606964
4861,3793.056657552719
4862,3793.8286623954773
4863,3794.6146676540375
4864,3795.4046726226807
4865,3796.208678007126
4866,3797.0296833515167
4867,3797.8566887378693
4868,3798.7036941051483
4869,3799.5576996803284
4870,3800.4057052135468
4871,3801.2647109031677
4872,3802.1007163524628
4873,3802.923721551895
4874,3803.7527270317078
4875,3804.578732252121
4876,3805.3917376995087
4877,3806.2027428150177
4878,3807.0237481594086
4879,3807.8697538375854
4880,3808.7337594032288
4881,3809.595764875412
4882,3810.4257702827454
4883,3811.251775741577
4884,3812.0967812538147
4885,3812.9537868499756
4886,3813.8187923431396
4887,3814.666797876358
4888,3815.525803565979
4889,3816.3788089752197
4890,3817.218814611435
4891,3818.0408198833466
4892,3818.880825281143
4893,3819.7298307418823
4894,3820.599836587906
4895,3821.4578421115875
4896,3822.3198475837708
4897,3823.1798532009125
4898,3824.039858818054
4899,3824.8858642578125
4900,3825.755870103836
4901,3826.609875679016
4902,3827.4378809928894
4903,3828.2548863887787
4904,3829.0818915367126
4905,3829.933897256851
4906,3830.7779026031494
4907,3831.5959079265594
4908,3832.403913259506
4909,3833.2239186763763
4910,3834.0469238758087
4911,3834.878929376602
4912,3835.697934627533
4913,3836.5119400024414
4914,3837.3269453048706
4915,3838.153950691223
4916,3838.972955942154
4917,3839.803961277008
4918,3840.6569669246674
4919,3841.5089724063873
4920,3842.3369777202606
4921,3843.1629831790924
4922,3843.952988386154
4923,3844.7079932689667
4924,3845.4539980888367
4925,3846.1980028152466
4926,3846.9680078029633
4927,3847.7700130939484
4928,3848.565018415451
4929,3849.3740236759186
4930,3850.199028968811
4931,3851.0190341472626
4932,3851.8580396175385
4933,3852.669044971466
4934,3853.454050064087
4935,3854.228055000305
4936,3855.002060174942
4937,3855.7550649642944
4938,3856.517070055008
4939,3857.2700748443604
4940,3858.0200798511505
4941,3858.7790846824646
4942,3859.5460896492004
4943,3860.308094739914
4944,3861.085099697113
4945,3861.85710477829
4946,3862.615109682083
4947,3863.366114616394
4948,3864.126119375229
4949,3864.869124174118
4950,3865.6131291389465
4951,3866.350133895874
4952,3867.088138818741
4953,3867.8371436595917
4954,3868.5831484794617
4955,3869.343153476715
4956,3870.0931582450867
4957,3870.85316324234
4958,3871.594167947769
4959,3872.3371727466583
4960,3873.0901777744293
4961,3873.860182762146
4962,3874.6231877803802
4963,3875.3761925697327
4964,3876.1241974830627
4965,3876.8792023658752
4966,3877.6202070713043
4967,3878.3692121505737
4968,3879.128216981888
4969,3879.887221813202
4970,3880.6522269248962
4971,3881.424232006073
4972,3882.186236858368
4973,3882.9512417316437
4974,3883.716246843338
4975,3884.4692516326904
4976,3885.2152564525604
4977,3885.9652614593506
4978,3886.7242662906647
4979,3887.464271068573
4980,3888.201276063919
4981,3888.9332807064056
4982,3889.655285358429
4983,3890.367290019989
4984,3891.077294588089
4985,3891.79229927063
4986,3892.4943039417267
4987,3893.203308582306
4988,3893.8993129730225
4989,3894.582317352295
4990,3895.27832198143
4991,3896.0053267478943
4992,3896.7503316402435
4993,3897.541336774826
4994,3898.3513419628143
4995,3899.155347108841
4996,3899.9303522109985
4997,3900.6633570194244
4998,3901.382361650467
4999,3902.1143662929535
5000,3902.8773713111877
5001,3903.671376466751
5002,3904.4853818416595
5003,3905.3563873767853
5004,3906.249393224716
5005,3907.1023988723755
5006,3907.948404312134
5007,3908.838410139084
5008,3909.739415884018
5009,3910.608421564102
5010,3911.5074274539948
5011,3912.4194333553314
5012,3913.3224391937256
5013,3914.2234451770782
5014,3915.140451192856
5015,3916.04145693779
5016,3916.9434628486633
5017,3917.8494687080383
5018,3918.748474597931
5019,3919.6684806346893
5020,3920.594486474991
5021,3921.5114924907684
5022,3922.4304983615875
5023,3923.3405044078827
5024,3924.2415101528168
5025,3925.135516166687
5026,3926.0685222148895
5027,3926.9905281066895
5028,3927.9015340805054
5029,3928.829540014267
5030,3929.753545999527
5031,3930.6575520038605
5032,3931.5995581150055
5033,3932.519564151764
5034,3933.425570011139
5035,3934.3405759334564
5036,3935.24258184433
5037,3936.1505875587463
5038,3937.0345933437347
5039,3937.9405992031097
5040,3938.8416051864624
5041,3939.7296109199524
5042,3940.6146166324615
5043,3941.514622449875
5044,3942.3976283073425
5045,3943.2806339263916
5046,3944.187639951706
5047,3945.09264588356
5048,3945.986651659012
5049,3946.8726572990417
5050,3947.7876632213593
5051,3948.6926691532135
5052,3949.5846750736237
5053,3950.4966809749603
5054,3951.413686990738
5055,3952.3206927776337
5056,3953.235698699951
5057,3954.1507046222687
5058,3955.054710626602
5059,3955.9677164554596
5060,3956.8867225646973
5061,3957.795728445053
5062,3958.7247343063354
5063,3959.649740457535
5064,3960.5587463378906
5065,3961.492752313614
5066,3962.4267585277557
5067,3963.344764471054
5068,3964.2967705726624
5069,3965.2457768917084
5070,3966.160782814026
5071,3967.1017887592316
5072,3968.008794784546
5073,3968.898800611496
5074,3969.79980635643
5075,3970.6868121623993
5076,3971.582818031311
5077,3972.4948239326477
5078,3973.39182972908
5079,3974.2728354930878
5080,3975.173841238022
5081,3976.0548470020294
5082,3976.9288527965546
5083,3977.830858707428
5084,3978.734864473343
5085,3979.637870311737
5086,3980.545876264572
5087,3981.4508821964264
5088,3982.3588881492615
5089,3983.250893831253
5090,3984.1188995838165
5091,3984.987905025482
5092,3985.8409106731415
5093,3986.68891620636
5094,3987.5519218444824
5095,3988.404927253723
5096,3989.261932849884
5097,3990.149938583374
5098,3991.02694439888
5099,3991.8979501724243
5100,3992.7789556980133
5101,3993.6509613990784
5102,3994.5099670886993
5103,3995.367972612381
5104,3996.2259781360626
5105,3997.0839836597443
5106,3997.932989358902
5107,3998.7809948921204
5108,3999.652000427246
5109,4000.5190060138702
5110,4001.3910117149353
5111,4002.302017688751
5112,4003.213023662567
5113,4004.109029531479
5114,4005.010035276413
5115,4005.897041082382
5116,4006.770046710968
5117,4007.6510524749756
5118,4008.5440583229065
5119,4009.4190640449524
5120,4010.2990696430206
5121,4011.18807554245
5122,4012.0650811195374
5123,4012.933086872101
5124,4013.8220925331116
5125,4014.6810982227325
5126,4015.5361037254333
5127,4016.3931093215942
5128,4017.253114938736
5129,4018.1091203689575
5130,4018.9701261520386
5131,4019.8401317596436
5132,4020.7111372947693
5133,4021.5701429843903
5134,4022.4421486854553
5135,4023.3221542835236
5136,4024.201159954071
5137,4025.081165790558
5138,4025.969171524048
5139,4026.8491773605347
5140,4027.7231829166412
5141,4028.5841884613037
5142,4029.432193994522
5143,4030.286199569702
5144,4031.1572053432465
5145,4032.033210992813
5146,4032.9002165794373
5147,4033.7722222805023
5148,4034.6382279396057
5149,4035.5112335681915
5150,4036.3832392692566
5151,4037.246244907379
5152,4038.1072504520416
5153,4038.978256225586
