,ECG_peaks
0,0.0
1,0.7846343517303467
2,1.5552928447723389
3,2.349909782409668
4,3.1465232372283936
5,3.931157350540161
6,4.745739459991455
7,5.568307876586914
8,6.363922834396362
9,7.178504943847656
10,7.977114915847778
11,8.754761457443237
12,9.549378156661987
13,10.324029922485352
14,11.064740657806396
15,11.809444189071655
16,12.537177562713623
17,13.257923126220703
18,13.985656261444092
19,14.709396600723267
20,15.408180236816406
21,16.14290142059326
22,16.901580810546875
23,17.707178592681885
24,18.511778116226196
25,19.328356742858887
26,20.169891834259033
27,20.979482650756836
28,21.802050828933716
29,22.619627952575684
30,23.413246393203735
31,24.208861589431763
32,24.990501165390015
33,25.734206438064575
34,26.47591543197632
35,27.22361397743225
36,27.980296850204468
37,28.741971254348755
38,29.52261233329773
39,30.307246685028076
40,31.096872091293335
41,31.909457683563232
42,32.69409203529358
43,33.479724407196045
44,34.28332567214966
45,35.05997395515442
46,35.84261155128479
47,36.633235454559326
48,37.40888524055481
49,38.20250391960144
50,38.994126081466675
51,39.78674626350403
52,40.56838583946228
53,41.34703040122986
54,42.108704805374146
55,42.87137722969055
56,43.663997650146484
57,44.46560215950012
58,45.25622606277466
59,46.057830810546875
60,46.84446144104004
61,47.6211097240448
62,48.406742334365845
63,49.17141127586365
64,49.9650297164917
65,50.767632722854614
66,51.55725836753845
67,52.394800424575806
68,53.171448707580566
69,53.98503255844116
70,54.788633823394775
71,55.58624529838562
72,56.421791076660156
73,57.20941996574402
74,58.04197096824646
75,58.855554819107056
76,59.64917349815369
77,60.47373819351196
78,61.26236534118652
79,62.05199098587036
80,62.83363056182861
81,63.60229253768921
82,64.3719527721405
83,65.14660453796387
84,65.90228915214539
85,66.66595983505249
86,67.4286322593689
87,68.17333602905273
88,68.93501019477844
89,69.69269132614136
90,70.4334020614624
91,71.19407796859741
92,71.94177651405334
93,72.69546461105347
94,73.45614075660706
95,74.21881318092346
96,75.00244903564453
97,75.7771008014679
98,76.5397732257843
99,77.31442475318909
100,78.08408522605896
101,78.83777332305908
102,79.60144400596619
103,80.34315299987793
104,81.0668933391571
105,81.76667523384094
106,82.49440836906433
107,83.3688862323761
108,84.21241807937622
109,85.01502108573914
110,85.75074052810669
111,86.53537464141846
112,87.31102466583252
113,88.0856761932373
114,88.8553364276886
115,89.63298296928406
116,90.39565539360046
117,91.17030692100525
118,91.92998456954956
119,92.69764852523804
120,93.47729134559631
121,94.25393962860107
122,95.07550954818726
123,95.90207076072693
124,96.71765112876892
125,97.52724194526672
126,98.34481883049011
127,99.1653904914856
128,99.96599698066711
129,100.71768856048584
130,101.4504132270813
131,102.27497792243958
132,103.13148713111877
133,103.92011427879333
134,104.67579913139343
135,105.4165096282959
136,106.17918229103088
137,106.9348669052124
138,107.66459655761719
139,108.3703682422638
140,109.05517625808716
141,109.73099994659424
142,110.40283036231995
143,111.08164882659912
144,111.76645684242249
145,112.46124744415283
146,113.17999649047852
147,113.89175748825073
148,114.6224856376648
149,115.33225011825562
150,116.04500961303711
151,116.73081588745117
152,117.40164804458618
153,118.06649088859558
154,118.73033547401428
155,119.38319897651672
156,120.03905749320984
157,120.69691228866577
158,121.34478449821472
159,121.98666739463806
160,122.62156224250793
161,123.25146579742432
162,123.94625639915466
163,124.4992938041687
164,125.11122870445251
165,125.71517729759216
166,126.3141348361969
167,126.90710282325745
168,127.49507927894592
169,128.0780644416809
170,128.66504287719727
171,129.25401759147644
172,129.86595249176025
173,130.5168194770813
174,131.2275824546814
175,132.05364441871643
176,132.87970662117004
177,133.71625065803528
178,134.55079793930054
179,135.40331411361694
180,136.21190667152405
181,137.02648878097534
182,137.83707785606384
183,138.6267032623291
184,139.40734457969666
185,140.16602396965027
186,140.9087312221527
187,141.62348699569702
188,142.31428456306458
189,142.98910999298096
190,143.64496850967407
191,144.29583549499512
192,144.93472337722778
193,145.57860279083252
194,146.22547674179077
195,146.87434720993042
196,147.52022314071655
197,148.1641023159027
198,148.80299019813538
199,149.44487285614014
200,150.0797679424286
201,150.71765756607056
202,151.34756112098694
203,151.97247338294983
204,152.59838390350342
205,153.21730661392212
206,153.83323454856873
207,154.44417119026184
208,155.0441267490387
209,155.63609647750854
210,156.22207641601562
211,156.8130476474762
212,157.41699647903442
213,158.03092789649963
214,158.64885234832764
215,159.27276635169983
216,159.88669776916504
217,160.49763417243958
218,161.1025812625885
219,161.70852661132812
220,162.30848217010498
221,162.90644145011902
222,163.51837635040283
223,164.1532711982727
224,164.80313992500305
225,165.45001411437988
226,166.09888458251953
227,166.7357759475708
228,167.37067103385925
229,168.00157284736633
230,168.63147640228271
231,169.2623782157898
232,169.89028525352478
233,170.51120448112488
234,171.14410281181335
235,171.7889802455902
236,172.44861793518066
237,173.10825538635254
238,173.7678928375244
239,174.42753052711487
240,175.08716797828674
241,175.74680542945862
242,176.40644311904907
243,177.06608057022095
244,177.72571802139282
245,178.38535571098328
246,179.04499316215515
247,179.70463061332703
248,180.36426830291748
249,181.02390575408936
250,181.64382672309875
251,215.09975862503052
252,215.76896405220032
253,216.4381697177887
254,217.10737538337708
255,217.77658081054688
256,218.46958661079407
257,219.1565923690796
258,219.8345980644226
259,220.59460425376892
260,221.25760984420776
261,221.96461582183838
262,222.64762139320374
263,223.3811275959015
264,224.11463356018066
265,224.8446397781372
266,225.57064580917358
267,226.31865191459656
268,227.04465794563293
269,227.7686641216278
270,228.73967218399048
271,229.96268224716187
272,230.70468854904175
273,231.43169450759888
274,232.15770053863525
275,232.86870646476746
276,233.5807123184204
277,234.2827181816101
278,234.98372411727905
279,235.69473004341125
280,236.40373587608337
281,237.1087417602539
282,237.82774782180786
283,238.54475378990173
284,239.26475977897644
285,239.9727656841278
286,240.68377161026
287,241.40677762031555
288,242.11978340148926
289,242.83078932762146
290,243.5447952747345
291,244.2558012008667
292,244.95880722999573
293,245.6558129787445
294,246.3418185710907
295,247.03682446479797
296,247.7288303375244
297,248.42483592033386
298,249.1348419189453
299,249.85584783554077
300,250.56185388565063
301,251.2718596458435
302,251.9558653831482
303,252.63687109947205
304,253.31687664985657
305,253.9998824596405
306,254.68788814544678
307,255.36089372634888
308,256.0248992443085
309,256.67490458488464
310,257.31490993499756
311,257.94391536712646
312,258.5889205932617
313,259.21992588043213
314,259.8429310321808
315,260.45693612098694
316,261.0689413547516
317,261.67694640159607
318,262.2949514389038
319,262.91595673561096
320,263.53796195983887
321,264.17196702957153
322,264.8129725456238
323,265.4409775733948
324,266.0629827976227
325,266.7039883136749
326,267.3609936237335
327,268.02399921417236
328,268.69700479507446
329,269.3580102920532
330,270.037015914917
331,270.7210216522217
332,271.44302773475647
333,272.15103363990784
334,272.86903953552246
335,273.5830454826355
336,274.3100514411926
337,275.04005765914917
338,275.7740638256073
339,276.5540702342987
340,277.2610762119293
341,277.99208211898804
342,278.7350883483887
343,279.527095079422
344,280.23210072517395
345,281.0201075077057
346,281.73011326789856
347,282.47911953926086
348,283.2241258621216
349,283.9491317272186
350,284.69313788414
351,285.4581444263458
352,286.1791503429413
353,286.9331567287445
354,287.6791627407074
355,288.41616892814636
356,289.1661751270294
357,289.9171814918518
358,290.66718769073486
359,291.4041938781738
360,292.1371998786926
361,292.863205909729
362,293.5982120037079
363,294.321218252182
364,295.0412242412567
365,295.7782301902771
366,296.5142364501953
367,297.2742426395416
368,298.02424907684326
369,298.7582550048828
370,299.50826120376587
371,300.25026750564575
372,301.0162739753723
373,301.76628017425537
374,302.4982862472534
375,303.23929238319397
376,303.96929836273193
377,304.70730471611023
378,305.4573109149933
379,306.19831705093384
380,306.96532344818115
381,307.7123296260834
382,308.47633600234985
383,309.2193422317505
384,309.9663484096527
385,310.7213547229767
386,311.46736097335815
387,312.22736716270447
388,312.9593732357025
389,313.7163796424866
390,314.4743859767914
391,315.2343921661377
392,315.9883985519409
393,316.7254047393799
394,317.4794108867645
395,318.22241711616516
396,318.9784233570099
397,319.730429649353
398,320.47743582725525
399,321.2314422130585
400,321.9674482345581
401,322.7114543914795
402,323.4544606208801
403,324.1824667453766
404,324.92147278785706
405,325.647479057312
406,326.3824851512909
407,327.12149119377136
408,327.85649728775024
409,328.61250352859497
410,329.35850977897644
411,330.10751605033875
412,330.86952233314514
413,331.6065285205841
414,332.348534822464
415,333.07654070854187
416,333.7965466976166
417,334.5075526237488
418,335.21755862236023
419,335.93356466293335
420,336.66657066345215
421,337.40457677841187
422,338.1435830593109
423,338.9105894565582
424,339.6725957393646
425,340.43560218811035
426,341.19060826301575
427,341.93261456489563
428,342.6826207637787
429,343.42362689971924
430,344.18363332748413
431,344.93963956832886
432,345.6866457462311
433,346.44365215301514
434,347.1976583003998
435,347.93966460227966
436,348.6906707286835
437,349.4286768436432
438,350.18168330192566
439,350.9196894168854
440,351.6526954174042
441,352.3817014694214
442,353.0997076034546
443,353.82571363449097
444,354.57171964645386
445,355.3147258758545
446,356.0727322101593
447,356.83373856544495
448,357.60074496269226
449,358.3577513694763
450,359.11175751686096
451,359.8767638206482
452,360.62877011299133
453,361.37777638435364
454,362.11178255081177
455,362.83378863334656
456,363.55379462242126
457,364.27080059051514
458,365.0028066635132
459,365.753812789917
460,366.49481892585754
461,367.24382519721985
462,368.013831615448
463,368.78383803367615
464,369.5468444824219
465,370.3188507556915
466,371.06885719299316
467,371.8048632144928
468,372.53486943244934
469,373.27287554740906
470,373.99188137054443
471,374.71888756752014
472,375.4448935985565
473,376.1778995990753
474,376.92090582847595
475,377.67791223526
476,378.4309184551239
477,379.18092465400696
478,379.9269309043884
479,380.67393708229065
480,381.41194319725037
481,382.154949426651
482,382.89195561408997
483,383.62496161460876
484,384.3529677391052
485,385.0769736766815
486,385.822979927063
487,386.55798602104187
488,387.2829921245575
489,388.01499819755554
490,388.7520043849945
491,389.47701048851013
492,390.2110164165497
493,390.9640226364136
494,391.73002910614014
495,392.47203540802
496,393.22604155540466
497,393.9890480041504
498,394.73705410957336
499,395.4950604438782
500,396.2510666847229
501,396.98807287216187
502,397.73407912254333
503,398.4690852165222
504,399.21409153938293
505,399.9670977592468
506,400.7071039676666
507,401.44511008262634
508,402.17411613464355
509,402.89812207221985
510,403.6301281452179
511,404.3751344680786
512,405.1041405200958
513,405.8431465625763
514,406.5721526145935
515,407.2981586456299
516,408.02616477012634
517,408.7521708011627
518,409.4741768836975
519,410.1981828212738
520,410.92818903923035
521,411.6731951236725
522,412.4172012805939
523,413.15920758247375
524,413.9152138233185
525,414.6622200012207
526,415.4002261161804
527,416.13623237609863
528,416.86923837661743
529,417.6112446784973
530,418.3372507095337
531,419.06025671958923
532,419.7882628440857
533,420.5082688331604
534,421.2522749900818
535,421.9942810535431
536,422.71828722953796
537,423.4562933444977
538,424.198299407959
539,424.93730568885803
540,425.6633117198944
541,426.3943176269531
542,427.11932373046875
543,427.87733006477356
544,428.6253364086151
545,429.38134264945984
546,430.1293487548828
547,430.86135482788086
548,431.60836124420166
549,432.3513672351837
550,433.07637333869934
551,433.8043794631958
552,434.52538537979126
553,435.2353913784027
554,435.9503972530365
555,436.66240334510803
556,437.3724091053009
557,438.0874149799347
558,438.8104212284088
559,439.5254271030426
560,440.25343322753906
561,440.9804391860962
562,441.7154452800751
563,442.45045137405396
564,443.19445753097534
565,443.9184637069702
566,444.6354696750641
567,445.3464756011963
568,446.05648136138916
569,446.7714874744415
570,447.48449325561523
571,448.1944992542267
572,448.91350531578064
573,449.6235110759735
574,450.34451723098755
575,451.0615231990814
576,451.7725291252136
577,452.49053502082825
578,453.19754099845886
579,453.91754698753357
580,454.6395528316498
581,455.36155891418457
582,456.07456493377686
583,456.78557085990906
584,457.4905767440796
585,458.19358253479004
586,458.905588388443
587,459.6145942211151
588,460.3436002731323
589,461.07360649108887
590,461.8166127204895
591,462.5546188354492
592,463.2986249923706
593,464.0386312007904
594,464.73463702201843
595,465.39664244651794
596,466.04264783859253
597,466.675653219223
598,467.3166584968567
599,467.9966640472412
600,468.66366958618164
601,469.3166751861572
602,469.95268034935
603,470.59368562698364
604,471.2436912059784
605,471.9036965370178
606,472.58270239830017
607,473.2847080230713
608,473.97471380233765
609,474.700719833374
610,475.437726020813
611,476.1667320728302
612,476.88773822784424
613,477.60774421691895
614,478.3467502593994
615,479.07375621795654
616,479.7997624874115
617,480.5217683315277
618,481.2387742996216
619,481.9347801208496
620,482.63078594207764
621,483.2917914390564
622,483.9517970085144
623,484.62580251693726
624,485.2998082637787
625,485.9508135318756
626,486.61381912231445
627,487.2898247241974
628,487.95783019065857
629,488.61283564567566
630,489.26784110069275
631,489.9488468170166
632,490.62285256385803
633,491.28285789489746
634,491.9368634223938
635,492.6098690032959
636,493.27487444877625
637,493.9358801841736
638,494.5928854942322
639,495.25889110565186
640,495.9078965187073
641,496.55590176582336
642,497.1959071159363
643,497.83491253852844
644,498.46791791915894
645,499.09592294692993
646,499.7169282436371
647,500.3349332809448
648,500.9469385147095
649,501.5539433956146
650,502.15894842147827
651,502.76295351982117
652,503.36195850372314
653,503.9559636116028
654,504.5459682941437
655,505.1349732875824
656,505.72197818756104
657,506.3069829940796
658,506.8889880180359
659,507.4689927101135
660,508.0499975681305
661,508.6320023536682
662,509.21500730514526
663,509.80101203918457
664,510.3900170326233
665,510.979022026062
666,511.56802678108215
667,512.1550316810608
668,512.7390365600586
669,513.3210413455963
670,513.9060463905334
671,514.491051197052
672,515.0730559825897
673,515.6570608615875
674,516.2400658130646
675,516.8290705680847
676,517.4190754890442
677,518.0140805244446
678,518.6070854663849
679,519.2040903568268
680,519.7990953922272
681,520.3951003551483
682,520.9921052455902
683,521.5861103534698
684,522.1791152954102
685,522.7701201438904
686,523.3581249713898
687,523.9461300373077
688,524.530134677887
689,525.1151397228241
690,525.7021446228027
691,526.2831494808197
692,526.8771543502808
693,527.4791593551636
694,528.0841643810272
695,528.6851694583893
696,529.2841744422913
697,529.8881793022156
698,530.4871842861176
699,531.082189321518
700,531.6801943778992
701,532.275199174881
702,532.8772041797638
703,533.4732091426849
704,534.0702142715454
705,534.6692192554474
706,535.2662241458893
707,535.8702292442322
708,536.4672341346741
709,537.0612390041351
710,537.6542439460754
711,538.2482490539551
712,538.8382539749146
713,539.4232587814331
714,540.0002636909485
715,540.5772683620453
716,541.1572732925415
717,541.7362780570984
718,542.3122828006744
719,542.886287689209
720,543.4632923603058
721,544.0412971973419
722,544.619302034378
723,545.1933069229126
724,545.7603116035461
725,546.321316242218
726,546.8833208084106
727,547.4533257484436
728,548.0263304710388
729,548.5983352661133
730,549.17333984375
731,549.7533447742462
732,550.3303496837616
733,550.9013543128967
734,551.4733591079712
735,552.0533640384674
736,552.6533689498901
737,553.2633740901947
738,553.8913793563843
739,554.5513846874237
740,555.2303903102875
741,555.9123959541321
742,556.6104018688202
743,557.2974076271057
744,557.9914133548737
745,558.6784191131592
746,559.377424955368
747,560.1034309864044
748,560.8154368400574
749,561.5704431533813
750,562.270448923111
751,563.04545545578
752,563.7624614238739
753,564.5414679050446
754,565.2594738006592
755,566.0464804172516
756,566.7774865627289
757,567.5624930858612
758,568.2944991588593
759,569.1155059337616
760,569.9375128746033
761,570.7595195770264
762,571.5785264968872
763,572.3455328941345
764,573.199539899826
765,573.9855465888977
766,574.7795531749725
767,575.5885598659515
768,576.4155666828156
769,577.227573633194
770,578.0255801677704
771,578.8305869102478
772,579.6485936641693
773,580.4496004581451
774,581.2506070137024
775,582.0776138305664
776,582.8806204795837
777,583.677627325058
778,584.5056340694427
779,585.3486411571503
780,586.1746480464935
781,586.9866547584534
782,587.8456618785858
783,588.6996691226959
784,589.5116758346558
785,590.3466827869415
786,591.1796896457672
787,591.9976963996887
788,592.812703371048
789,593.5997097492218
790,594.4137165546417
791,595.1947231292725
792,595.9547295570374
793,596.7307360172272
794,597.5237424373627
795,598.2957489490509
796,599.0677554607391
797,599.8607618808746
798,600.6487684249878
799,601.4187748432159
800,602.2287817001343
801,603.045788526535
802,603.8457951545715
803,604.6738021373749
804,605.5168089866638
805,606.3248157501221
806,607.1598227024078
807,607.9698295593262
808,608.7508358955383
809,609.5538427829742
810,610.3678493499756
811,611.1788561344147
812,611.9838628768921
813,612.8018696308136
814,613.6218764781952
815,614.404883146286
816,615.1848895549774
817,615.9738960266113
818,616.7839028835297
819,617.5809094905853
820,618.395916223526
821,619.2239232063293
822,620.0089297294617
823,620.8069362640381
824,621.6179430484772
825,622.4159498214722
826,623.1929562091827
827,623.9839627742767
828,624.7719693183899
829,625.548975944519
830,626.3269822597504
831,627.094988822937
832,627.8539950847626
833,628.6570017337799
834,629.4520082473755
835,630.2490148544312
836,631.1020221710205
837,631.9150288105011
838,632.7090353965759
839,633.5360424518585
840,634.35404920578
841,635.1290555000305
842,635.9150621891022
843,636.7130687236786
844,637.5280754566193
845,638.3110821247101
846,639.1320888996124
847,640.0430965423584
848,640.940104007721
849,641.7471106052399
850,642.5811176300049
851,643.4151246547699
852,644.2321314811707
853,645.0291380882263
854,645.905145406723
855,646.8591532707214
856,647.7141604423523
857,648.6231679916382
858,649.5461757183075
859,650.382182598114
860,651.1831891536713
861,652.0211961269379
862,652.8362030982971
863,653.6132094860077
864,654.3702158927917
865,655.1152219772339
866,656.0102293491364
867,656.8022360801697
868,657.5702424049377
869,658.552250623703
870,659.4912583827972
871,660.3152651786804
872,661.1862726211548
873,662.0662798881531
874,662.9352869987488
875,663.820294380188
876,664.6933016777039
877,665.5453088283539
878,666.3773157596588
879,667.2243227958679
880,668.0743298530579
881,668.9363369941711
882,669.8033442497253
883,670.684351682663
884,671.5243585109711
885,672.3743658065796
886,673.2503728866577
887,674.1263802051544
888,675.023387670517
889,675.9443953037262
890,676.8364028930664
891,677.7144100666046
892,678.5394170284271
893,679.4064242839813
894,680.2684314250946
895,681.1114385128021
896,682.0034458637238
897,682.9044532775879
898,683.758460521698
899,684.6474678516388
900,685.5264751911163
901,686.3834822177887
902,687.2784898281097
903,688.1434969902039
904,688.9775040149689
905,689.8535113334656
906,690.6925182342529
907,691.5095250606537
908,692.3455319404602
909,693.1885390281677
910,694.032546043396
911,694.9245533943176
912,695.8725612163544
913,696.7745687961578
914,697.7155766487122
915,698.6085841655731
916,699.4645912647247
917,700.3605988025665
918,701.1916055679321
919,702.0006122589111
920,702.8186192512512
921,703.6376259326935
922,704.4466326236725
923,705.28963971138
924,706.1776471138
925,707.0486543178558
926,707.958662033081
927,708.8526694774628
928,709.7446768283844
929,710.6856846809387
930,711.5596919059753
931,712.4106991291046
932,713.3007063865662
933,714.1407134532928
934,714.9757204055786
935,715.8517277240753
936,716.7477350234985
937,717.6047422885895
938,718.5157499313354
939,719.3907570838928
940,720.2707643508911
941,721.1717720031738
942,722.0247790813446
943,722.9197864532471
944,723.812793970108
945,724.6688010692596
946,725.5608084201813
947,726.4508159160614
948,727.3168232440948
949,728.2188305854797
950,729.0948379039764
951,729.957845211029
952,730.8768527507782
953,731.7628600597382
954,732.640867471695
955,733.5278749465942
956,734.3848819732666
957,735.2738893032074
958,736.1308965682983
959,736.9769034385681
960,737.867910861969
961,738.7149181365967
962,739.5779252052307
963,740.4609324932098
964,741.3139395713806
965,742.2259471416473
966,743.1489548683167
967,744.0289623737335
968,744.9509699344635
969,745.8219771385193
970,746.7279846668243
971,747.5939919948578
972,748.4629991054535
973,749.3640067577362
974,750.2260138988495
975,751.105021238327
976,752.0470290184021
977,752.9340364933014
978,753.8330438137054
979,754.7090511322021
980,755.5370581150055
981,756.3570649623871
982,757.1950719356537
983,758.0460789203644
984,758.9320864677429
985,759.8010935783386
986,760.7151012420654
987,761.612108707428
988,762.5031161308289
989,763.4351239204407
990,764.2941310405731
991,765.1801383495331
992,766.0651457309723
993,766.9301528930664
994,767.7911601066589
995,768.618166923523
996,769.4931743144989
997,770.3491814136505
998,771.190188407898
999,772.0381953716278
1000,772.8542022705078
1001,773.6822092533112
1002,774.5272161960602
1003,775.3542230129242
1004,776.209230184555
1005,777.0622372627258
1006,777.9032442569733
1007,778.7532513141632
1008,779.5762581825256
1009,780.4482655525208
1010,781.3112726211548
1011,782.1802799701691
1012,783.0472872257233
1013,783.8882942199707
1014,784.7853016853333
1015,785.6483087539673
1016,786.4973158836365
1017,787.3923232555389
1018,788.2423303127289
1019,789.1133375167847
1020,789.9993450641632
1021,790.8563520908356
1022,791.7243592739105
1023,792.5703663825989
1024,793.401373386383
1025,794.2553803920746
1026,795.0793871879578
1027,795.9143941402435
1028,796.7584013938904
1029,797.5724079608917
1030,798.3994150161743
1031,799.2104218006134
1032,799.9674279689789
1033,800.6924340724945
1034,801.420440196991
1035,802.1944465637207
1036,802.9314527511597
1037,803.639458656311
1038,804.3414645195007
1039,805.0614705085754
1040,805.7904765605927
1041,806.5384826660156
1042,807.2854888439178
1043,808.0494952201843
1044,808.8415019512177
1045,809.6385085582733
1046,810.4415152072906
1047,811.2705221176147
1048,812.0915288925171
1049,812.9325358867645
1050,813.7645428180695
1051,814.5925498008728
1052,815.416556596756
1053,816.2545635700226
1054,817.0805704593658
1055,817.9255774021149
1056,818.7875847816467
1057,819.6665921211243
1058,820.5695996284485
1059,821.4806070327759
1060,822.3616144657135
1061,823.2736220359802
1062,824.1556293964386
1063,825.001636505127
1064,825.8546435832977
1065,826.7046506404877
1066,827.543657541275
1067,828.4666652679443
1068,829.4206731319427
1069,830.366681098938
1070,831.2986888885498
1071,832.1956963539124
1072,833.1187040805817
1073,834.0437116622925
1074,834.9357192516327
1075,835.8897271156311
1076,836.8317348957062
1077,837.7737426757812
1078,838.6757502555847
1079,839.519757270813
1080,840.3987646102905
1081,841.264771938324
1082,842.0837786197662
1083,842.9157855510712
1084,843.7267923355103
1085,844.5277988910675
1086,845.3818061351776
1087,846.3098137378693
1088,847.318822145462
1089,848.265830039978
1090,849.1478374004364
1091,850.0688450336456
1092,850.9388523101807
1093,851.8468599319458
1094,852.765867471695
1095,853.6668751239777
1096,854.5678825378418
1097,855.4568901062012
1098,856.3348972797394
1099,857.2409048080444
1100,858.114912033081
1101,858.9769194126129
1102,859.8489265441895
1103,860.7229337692261
1104,861.579941034317
1105,862.4469482898712
1106,863.3199553489685
1107,864.1749625205994
1108,865.0289697647095
1109,865.9099769592285
1110,866.7679841518402
1111,867.6129910945892
1112,868.4829983711243
1113,869.3270053863525
1114,870.2060127258301
1115,871.0880200862885
1116,871.9390273094177
1117,872.7790341377258
1118,873.6300413608551
1119,874.4900484085083
1120,875.3410556316376
1121,876.2200629711151
1122,877.0930700302124
1123,877.9180769920349
1124,878.7050836086273
1125,879.5550906658173
1126,880.5420987606049
1127,881.389105796814
1128,882.2211127281189
1129,883.0511198043823
1130,883.8891267776489
1131,884.6711332798004
1132,885.430139541626
1133,886.2021460533142
1134,887.0051527023315
1135,887.8151593208313
1136,888.6101660728455
1137,889.4291727542877
1138,890.298180103302
1139,891.186187505722
1140,892.0551946163177
1141,892.8852016925812
1142,893.7462086677551
1143,894.6002159118652
1144,895.4292228221893
1145,896.2432296276093
1146,897.1072368621826
1147,897.9922440052032
1148,898.87025141716
1149,899.7142584323883
1150,900.5712656974792
1151,901.4322726726532
1152,902.2992799282074
1153,903.137286901474
1154,903.9852941036224
1155,904.8633012771606
1156,905.7663087844849
1157,906.6733164787292
1158,907.5683238506317
1159,908.4673314094543
1160,909.3473386764526
1161,910.2263460159302
1162,911.0803530216217
1163,911.9773604869843
1164,912.878368139267
1165,913.7903757095337
1166,914.6803829669952
1167,915.6153907775879
1168,916.5453984737396
1169,917.4484062194824
1170,918.3354134559631
1171,919.2454211711884
1172,920.1574287414551
1173,921.0614361763
1174,921.9584436416626
1175,922.8804514408112
1176,923.8064589500427
1177,924.7304668426514
1178,925.6164741516113
1179,926.5174815654755
1180,927.4484894275665
1181,928.3644969463348
1182,929.254504442215
1183,930.1635119915009
1184,931.0775196552277
1185,931.9795269966125
1186,932.8525342941284
1187,933.7415418624878
1188,934.6345491409302
1189,935.5195565223694
1190,936.3925638198853
1191,937.2585711479187
1192,938.1405782699585
1193,939.0365858078003
1194,939.8865928649902
1195,940.7596001625061
1196,941.650607585907
1197,942.5346150398254
1198,943.3796219825745
1199,944.2336292266846
1200,945.0956363677979
1201,945.9416432380676
1202,946.7606501579285
1203,947.5746569633484
1204,948.3996636867523
1205,949.3266716003418
1206,950.2366790771484
1207,951.1346864700317
1208,952.0926945209503
1209,953.0677027702332
1210,954.0097105503082
1211,955.0447192192078
1212,956.0617275238037
1213,957.043735742569
1214,957.97474360466
1215,958.9127514362335
1216,959.8507590293884
1217,960.7387664318085
1218,961.6327738761902
1219,962.5677816867828
1220,963.5427899360657
1221,964.4927978515625
1222,965.4008052349091
1223,966.316812992096
1224,967.2468206882477
1225,968.151828289032
1226,969.057835817337
1227,969.9448432922363
1228,970.7898502349854
1229,971.611857175827
1230,972.4668641090393
1231,973.3278713226318
1232,974.2338788509369
1233,975.0968861579895
1234,976.0258939266205
1235,976.9699015617371
1236,977.8679091930389
1237,978.7819168567657
1238,979.702924489975
1239,980.6389322280884
1240,981.5439398288727
1241,982.441947221756
1242,983.3629548549652
1243,984.2669625282288
1244,985.0999693870544
1245,985.9479763507843
1246,986.7949833869934
1247,987.650990486145
1248,988.509997844696
1249,989.4210052490234
1250,990.3620131015778
1251,991.2570207118988
1252,992.1640281677246
1253,993.0810358524323
1254,993.9490430355072
1255,994.8300504684448
1256,995.7340579032898
1257,996.6170651912689
1258,997.489072561264
1259,998.3650798797607
1260,999.2280869483948
1261,1000.072093963623
1262,1000.9481012821198
1263,1001.8591089248657
1264,1002.7501163482666
1265,1003.6231236457825
1266,1004.5141310691833
1267,1005.4121384620667
1268,1006.2811458110809
1269,1007.1701531410217
1270,1008.0611605644226
1271,1008.9621679782867
1272,1009.8181750774384
1273,1010.6821823120117
1274,1011.5811898708344
1275,1012.4951975345612
1276,1013.4262051582336
1277,1014.3772130012512
1278,1015.3052208423615
1279,1016.1762280464172
1280,1017.0452353954315
1281,1017.9342427253723
1282,1018.826250076294
1283,1019.7022573947906
1284,1020.5822646617889
1285,1021.4632720947266
1286,1022.3302793502808
1287,1023.1952865123749
1288,1024.0772938728333
1289,1024.9623012542725
1290,1025.8263084888458
1291,1026.6973156929016
1292,1027.57932305336
1293,1028.4613304138184
1294,1029.3113374710083
1295,1030.1843447685242
1296,1031.0693521499634
1297,1031.9373593330383
1298,1032.813366651535
1299,1033.6933739185333
1300,1034.6133816242218
1301,1035.49338889122
1302,1036.3573961257935
1303,1037.211403131485
1304,1038.0494101047516
1305,1038.9274175167084
1306,1039.801424741745
1307,1040.6954321861267
1308,1041.5854396820068
1309,1042.540447473526
1310,1043.4684553146362
1311,1044.3744628429413
1312,1045.3084707260132
1313,1046.2264783382416
1314,1047.1064856052399
1315,1047.9754929542542
1316,1048.7864995002747
1317,1049.6445066928864
1318,1050.543514251709
1319,1051.3435208797455
1320,1052.1285274028778
1321,1052.9175338745117
1322,1053.6985404491425
1323,1054.4615468978882
1324,1055.2115530967712
1325,1055.9685595035553
1326,1056.7445659637451
1327,1057.5445725917816
1328,1058.3305790424347
1329,1059.1145856380463
1330,1059.913592338562
1331,1060.7145988941193
1332,1061.518605709076
1333,1062.3116121292114
1334,1063.115618944168
1335,1063.9166254997253
1336,1064.7236323356628
1337,1065.511638879776
1338,1066.315645456314
1339,1067.134652376175
1340,1067.945659160614
1341,1068.7636659145355
1342,1069.586672782898
1343,1070.395679473877
1344,1071.2206864356995
1345,1072.040693283081
1346,1072.8617000579834
1347,1073.69770693779
1348,1074.5407140254974
1349,1075.4097211360931
1350,1076.3037285804749
1351,1077.1947360038757
1352,1078.0807435512543
1353,1078.9437506198883
1354,1079.7907576560974
1355,1080.6167645454407
1356,1081.4637715816498
1357,1082.3247787952423
1358,1083.2227861881256
1359,1084.1167936325073
1360,1085.040801525116
1361,1085.964809179306
1362,1086.8678166866302
1363,1087.7658240795135
1364,1088.6408314704895
1365,1089.4798383712769
1366,1090.3528456687927
1367,1091.1928527355194
1368,1092.030859708786
1369,1092.8718667030334
1370,1093.727873802185
1371,1094.582880973816
1372,1095.4558880329132
1373,1096.3378953933716
1374,1097.190902709961
1375,1098.0749099254608
1376,1098.9179170131683
1377,1099.734923839569
1378,1100.5049302577972
1379,1101.2599365711212
1380,1102.0609431266785
1381,1102.862949848175
1382,1103.65895652771
1383,1104.4759633541107
1384,1105.3079702854156
1385,1106.1549773216248
1386,1106.9679839611053
1387,1107.7989909648895
1388,1108.6359977722168
1389,1109.465004682541
1390,1110.2610113620758
1391,1111.074018239975
1392,1111.896024942398
1393,1112.7200319766998
1394,1113.5500388145447
1395,1114.3980457782745
1396,1115.2580530643463
1397,1116.1210601329803
1398,1117.0000674724579
1399,1117.8750748634338
1400,1118.7750823497772
1401,1119.6560895442963
1402,1120.4940965175629
1403,1121.312103509903
1404,1122.1171100139618
1405,1122.9411170482635
1406,1123.762123823166
1407,1124.55313038826
1408,1125.3611371517181
1409,1126.1811439990997
1410,1127.0521512031555
1411,1127.8981583118439
1412,1128.7521653175354
1413,1129.5961723327637
1414,1130.4541795253754
1415,1131.2831864356995
1416,1132.0991933345795
1417,1132.8971998691559
1418,1133.7232067584991
1419,1134.5382134914398
1420,1135.313220024109
1421,1136.1072266101837
1422,1136.8932330608368
1423,1137.6912398338318
1424,1138.5022466182709
1425,1139.34725356102
1426,1140.156260251999
1427,1140.9952673912048
1428,1141.8362743854523
1429,1142.6472811698914
1430,1143.4942882061005
1431,1144.3192949295044
1432,1145.144301891327
1433,1145.9613087177277
1434,1146.7673153877258
1435,1147.5633220672607
1436,1148.344328403473
1437,1149.0923347473145
1438,1149.8423409461975
1439,1150.6923480033875
1440,1151.4843547344208
1441,1152.247360944748
1442,1152.9963672161102
1443,1153.7413733005524
1444,1154.471379518509
1445,1155.1833853721619
1446,1155.897391319275
1447,1156.6093974113464
1448,1157.3414034843445
1449,1158.0914096832275
1450,1158.855416059494
1451,1159.621422290802
1452,1160.4134290218353
1453,1161.1944353580475
1454,1161.9904420375824
1455,1162.7864487171173
1456,1163.547455072403
1457,1164.3184614181519
1458,1165.0744676589966
1459,1165.8374741077423
1460,1166.6044805049896
1461,1167.4624876976013
1462,1168.300494670868
1463,1169.1645019054413
1464,1170.051509141922
1465,1170.9385166168213
1466,1171.7405233383179
1467,1172.646530866623
1468,1173.455537557602
1469,1174.3685450553894
1470,1175.1785519123077
1471,1176.0155589580536
1472,1176.8355658054352
1473,1177.6525723934174
1474,1178.454579114914
1475,1179.32958650589
1476,1180.1195931434631
1477,1180.9235997200012
1478,1181.7856068611145
1479,1182.551613330841
1480,1183.406620502472
1481,1184.1856269836426
1482,1185.0636341571808
1483,1185.848640680313
1484,1186.739648103714
1485,1187.5226547718048
1486,1188.3906619548798
1487,1189.1776683330536
1488,1189.9946751594543
1489,1190.8066821098328
1490,1191.6716892719269
1491,1192.42369556427
1492,1193.2877025604248
1493,1194.0737092494965
1494,1194.9237163066864
1495,1195.702722787857
1496,1196.5487298965454
1497,1197.3117361068726
1498,1198.1747434139252
1499,1198.9357497692108
1500,1199.736756324768
1501,1200.534763097763
1502,1201.328769683838
1503,1202.1357762813568
1504,1203.0037834644318
1505,1203.7847900390625
1506,1204.6767973899841
1507,1205.4628040790558
1508,1206.2898108959198
1509,1207.1268179416656
1510,1207.9568247795105
1511,1208.7828316688538
1512,1209.6348388195038
1513,1210.476845741272
1514,1211.3318529129028
1515,1212.1958601474762
1516,1213.0328669548035
1517,1213.8908741474152
1518,1214.7178812026978
1519,1215.5458879470825
1520,1216.3698947429657
1521,1217.1689014434814
1522,1218.0399086475372
1523,1218.8449153900146
1524,1219.677922487259
1525,1220.5819299221039
1526,1221.3739364147186
1527,1222.214943408966
1528,1223.107950925827
1529,1223.8919575214386
1530,1224.7449645996094
1531,1225.6069717407227
1532,1226.4629788398743
1533,1227.3299860954285
1534,1228.1899931430817
1535,1229.0340003967285
1536,1229.9100074768066
1537,1230.7470145225525
1538,1231.5820214748383
1539,1232.4140284061432
1540,1233.2300353050232
1541,1234.0950424671173
1542,1234.9670495986938
1543,1235.8400568962097
1544,1236.7750647068024
1545,1237.6050715446472
1546,1238.4790790081024
1547,1239.3470861911774
1548,1240.20809340477
1549,1241.0951006412506
1550,1241.9501078128815
1551,1242.8101148605347
1552,1243.6801221370697
1553,1244.5321292877197
1554,1245.3891365528107
1555,1246.2351434230804
1556,1247.1061506271362
1557,1247.982157945633
1558,1248.8451652526855
1559,1249.7261724472046
1560,1250.5751795768738
1561,1251.4321868419647
1562,1252.3031940460205
1563,1253.1492011547089
1564,1254.025208234787
1565,1254.8982155323029
1566,1255.7582228183746
1567,1256.6112298965454
1568,1257.449236869812
1569,1258.3452444076538
1570,1259.2382516860962
1571,1260.109258890152
1572,1260.9982664585114
1573,1261.8872737884521
1574,1262.7792811393738
1575,1263.6702885627747
1576,1264.5242958068848
1577,1265.409303188324
1578,1266.3023104667664
1579,1267.1663177013397
1580,1268.0453250408173
1581,1268.9003322124481
1582,1269.766339302063
1583,1270.636346578598
1584,1271.4973537921906
1585,1272.358361005783
1586,1273.2453684806824
1587,1274.1183755397797
1588,1274.9883828163147
1589,1275.8613901138306
1590,1276.686397075653
1591,1277.5174038410187
1592,1278.3574109077454
1593,1279.1894178390503
1594,1280.1124255657196
1595,1280.9254322052002
1596,1281.8734402656555
1597,1282.7194471359253
1598,1283.5914545059204
1599,1284.483461856842
1600,1285.3464691638947
1601,1286.1824760437012
1602,1287.0304832458496
1603,1287.8554899692535
1604,1288.6884970664978
1605,1289.5235040187836
1606,1290.3545107841492
1607,1291.1515173912048
1608,1291.9305238723755
1609,1292.7845311164856
1610,1293.6925384998322
1611,1294.4655449390411
1612,1295.2405514717102
1613,1296.01455783844
1614,1296.7995643615723
1615,1297.5695707798004
1616,1298.3675775527954
1617,1299.1385838985443
1618,1299.9265904426575
1619,1300.7035970687866
1620,1301.4746034145355
1621,1302.2936103343964
1622,1303.1146171092987
1623,1303.9146237373352
1624,1304.7256305217743
1625,1305.5276372432709
1626,1306.3056435585022
1627,1307.1006503105164
1628,1307.9016568660736
1629,1308.7406640052795
1630,1309.6056711673737
1631,1310.4776782989502
1632,1311.3776857852936
1633,1312.2576932907104
1634,1313.124700307846
1635,1313.983707666397
1636,1314.8467147350311
1637,1315.701721906662
1638,1316.5457289218903
1639,1317.3417356014252
1640,1318.1367421150208
1641,1318.939748764038
1642,1319.7447555065155
1643,1320.5997626781464
1644,1321.3937692642212
1645,1322.2427763938904
1646,1323.091783285141
1647,1323.9767906665802
1648,1324.7997975349426
1649,1325.6828050613403
1650,1326.5808124542236
1651,1327.4648196697235
1652,1328.350827217102
1653,1329.213834285736
1654,1330.0758414268494
1655,1330.9108483791351
1656,1331.7088551521301
1657,1332.459861278534
1658,1333.2028675079346
1659,1333.9398736953735
1660,1334.683879852295
1661,1335.4038858413696
1662,1336.1038916110992
1663,1336.7798974514008
1664,1337.519903421402
1665,1338.2939100265503
1666,1339.0759165287018
1667,1339.9069232940674
1668,1340.787930727005
1669,1341.6229376792908
1670,1342.466944694519
1671,1343.2709512710571
1672,1344.1089582443237
1673,1344.936965227127
1674,1345.7159717082977
1675,1346.4969782829285
1676,1347.2899849414825
1677,1348.0569913387299
1678,1348.8979983329773
1679,1349.6690046787262
1680,1350.538011789322
1681,1351.4130191802979
1682,1352.2840263843536
1683,1353.1920340061188
1684,1354.0870413780212
1685,1354.8610479831696
1686,1355.6780545711517
1687,1356.4460611343384
1688,1357.1980674266815
1689,1357.942073583603
1690,1358.6780796051025
1691,1359.4210858345032
1692,1360.1580920219421
1693,1360.8870980739594
1694,1361.6201040744781
1695,1362.342110157013
1696,1363.0421159267426
1697,1363.7411217689514
1698,1364.4271275997162
1699,1365.1181333065033
1700,1365.825139284134
1701,1366.5221450328827
1702,1367.2211508750916
1703,1367.9461567401886
1704,1368.697163105011
1705,1369.4421691894531
1706,1370.1881754398346
1707,1370.9231815338135
1708,1371.646187543869
1709,1372.3561935424805
1710,1373.0581994056702
1711,1373.773205280304
1712,1374.4852113723755
1713,1375.188217163086
1714,1375.9012229442596
1715,1376.629229068756
1716,1377.3342349529266
1717,1378.0502409934998
1718,1378.756246805191
1719,1379.4462525844574
1720,1380.148258447647
1721,1380.8532643318176
1722,1381.5302698612213
1723,1382.212275505066
1724,1382.8932812213898
1725,1383.5642869472504
1726,1384.246292591095
1727,1384.9362983703613
1728,1385.63330411911
1729,1386.330309867859
1730,1387.023315668106
1731,1387.7063212394714
1732,1388.3963270187378
1733,1389.0713326931
1734,1389.726338148117
1735,1390.379343509674
1736,1391.0383491516113
1737,1391.702354669571
1738,1392.3763601779938
1739,1393.0523657798767
1740,1393.7263715267181
1741,1394.398376941681
1742,1395.0563824176788
1743,1395.7073879241943
1744,1396.3543932437897
1745,1396.9983987808228
1746,1397.6364040374756
1747,1398.2774093151093
1748,1398.9214146137238
1749,1399.5594201087952
1750,1400.2094254493713
1751,1400.8584308624268
1752,1401.5024361610413
1753,1402.150441646576
1754,1402.7924468517303
1755,1403.435452222824
1756,1404.0854578018188
1757,1404.7434632778168
1758,1405.4024686813354
1759,1406.0614740848541
1760,1406.7234797477722
1761,1407.3714849948883
1762,1408.0294904708862
1763,1408.6844959259033
1764,1409.3385014533997
1765,1409.985506772995
1766,1410.6305122375488
1767,1411.26051735878
1768,1411.8965227603912
1769,1412.5285279750824
1770,1413.1575331687927
1771,1413.7815384864807
1772,1414.4035437107086
1773,1415.0185487270355
1774,1415.6375539302826
1775,1416.2565591335297
1776,1416.878564119339
1777,1417.500569343567
1778,1418.119574546814
1779,1418.7375795841217
1780,1419.339584827423
1781,1419.9445898532867
1782,1420.5465948581696
1783,1421.1495997905731
1784,1421.7496047019958
1785,1422.3426096439362
1786,1422.9356145858765
1787,1423.5316195487976
1788,1424.126624584198
1789,1424.7366297245026
1790,1425.3516347408295
1791,1425.9526398181915
1792,1426.5676448345184
1793,1427.182650089264
1794,1427.79465508461
1795,1428.4146602153778
1796,1429.0296654701233
1797,1429.6546704769135
1798,1430.2726757526398
1799,1430.8926808834076
1800,1431.5086860656738
1801,1432.1256911754608
1802,1432.7506964206696
1803,1433.3727016448975
1804,1433.9997067451477
1805,1434.6257119178772
1806,1435.2467172145844
1807,1435.8617222309113
1808,1436.4747273921967
1809,1437.0817325115204
1810,1437.686737537384
1811,1438.2897424697876
1812,1438.8877475261688
1813,1439.4897525310516
1814,1440.0897574424744
1815,1440.6937625408173
1816,1441.2997674942017
1817,1441.9097726345062
1818,1442.5227777957916
1819,1443.1357827186584
1820,1443.7467880249023
1821,1444.3537929058075
1822,1444.9557979106903
1823,1445.562803030014
1824,1446.1678080558777
1825,1446.7678129673004
1826,1447.3718180656433
1827,1447.9778232574463
1828,1448.5698280334473
1829,1449.1578328609467
1830,1449.757838010788
1831,1450.3608429431915
1832,1450.9628479480743
1833,1451.5658531188965
1834,1452.1678581237793
1835,1452.767863035202
1836,1453.3708679676056
1837,1453.967873096466
1838,1454.566878080368
1839,1455.160882949829
1840,1455.7498879432678
1841,1456.3468928337097
1842,1456.94189786911
1843,1457.554902791977
1844,1458.1659078598022
1845,1458.7819130420685
1846,1459.396918296814
1847,1460.0069231987
1848,1460.6189284324646
1849,1461.2289335727692
1850,1461.8349385261536
1851,1462.4549436569214
1852,1463.0689487457275
1853,1463.6809539794922
1854,1464.3019590377808
1855,1464.922964334488
1856,1465.5439693927765
1857,1466.1739747524261
1858,1466.806979894638
1859,1467.430985212326
1860,1468.0599904060364
1861,1468.6849956512451
1862,1469.3080008029938
1863,1469.9390060901642
1864,1470.5690112113953
1865,1471.2010164260864
1866,1471.8320217132568
1867,1472.4560270309448
1868,1473.0740320682526
1869,1473.6980373859406
1870,1474.3180425167084
1871,1474.9380476474762
1872,1475.5610527992249
1873,1476.1860580444336
1874,1476.8070631027222
1875,1477.4300682544708
1876,1478.053073644638
1877,1478.6760787963867
1878,1479.3070840835571
1879,1479.938089132309
1880,1480.5730946063995
1881,1481.2160999774933
1882,1481.8611052036285
1883,1482.4971106052399
1884,1483.1321158409119
1885,1483.769121170044
1886,1484.4101264476776
1887,1485.0561318397522
1888,1485.7071373462677
1889,1486.354142665863
1890,1487.0011479854584
1891,1487.6431534290314
1892,1488.2781586647034
1893,1488.9201641082764
1894,1489.5561692714691
1895,1490.191174507141
1896,1490.833179950714
1897,1491.473185300827
1898,1492.11319065094
1899,1492.745195865631
1900,1493.3722012043
1901,1493.9922063350677
1902,1494.621211528778
1903,1495.2532167434692
1904,1495.8792219161987
1905,1496.5092272758484
1906,1497.1432325839996
1907,1497.7802376747131
1908,1498.4142429828644
1909,1499.044248342514
1910,1499.6752536296844
1911,1500.3082587718964
1912,1500.9402639865875
1913,1501.5762693881989
1914,1502.2202746868134
1915,1502.8562800884247
1916,1503.485285282135
1917,1504.125290632248
1918,1504.755295753479
1919,1505.3823010921478
1920,1506.009306192398
1921,1506.6473116874695
1922,1507.2803168296814
1923,1507.9163222312927
1924,1508.548327445984
1925,1509.178332567215
1926,1509.8063378334045
1927,1510.432343006134
1928,1511.0633482933044
1929,1511.6943535804749
1930,1512.3223588466644
1931,1512.9493641853333
1932,1513.585369348526
1933,1514.2263746261597
1934,1514.8723800182343
1935,1515.515385389328
1936,1516.1533906459808
1937,1516.792396068573
1938,1517.4214012622833
1939,1518.0434064865112
1940,1518.66641163826
1941,1519.2904169559479
1942,1519.9114220142365
1943,1520.537427186966
1944,1521.1634323596954
1945,1521.7874376773834
1946,1522.408442735672
1947,1523.0224480628967
1948,1523.6414530277252
1949,1524.2654583454132
1950,1524.890463590622
1951,1525.522468805313
1952,1526.162474155426
1953,1526.8014793395996
1954,1527.4254846572876
1955,1528.0414898395538
1956,1528.6474947929382
1957,1529.2524998188019
1958,1529.8625049591064
1959,1530.4645099639893
1960,1531.0715148448944
1961,1531.6745200157166
1962,1532.2765250205994
1963,1532.8805301189423
1964,1533.480535030365
1965,1534.0845401287079
1966,1534.7015452384949
1967,1535.3055500984192
1968,1535.896555185318
1969,1536.4915599822998
1970,1537.1015651226044
1971,1537.726570367813
1972,1538.3495755195618
1973,1538.9715807437897
1974,1539.5935859680176
1975,1540.2155911922455
1976,1540.8295962810516
1977,1541.435601234436
1978,1542.0426063537598
1979,1542.6486113071442
1980,1543.2536163330078
1981,1543.8596215248108
1982,1544.4776265621185
1983,1545.0956318378448
1984,1545.7166368961334
1985,1546.3536422252655
1986,1546.9946475028992
1987,1547.637652873993
1988,1548.2756581306458
1989,1548.9126634597778
1990,1549.546668767929
1991,1550.1776740550995
1992,1550.8006792068481
1993,1551.4176843166351
1994,1552.0326895713806
1995,1552.6466946601868
1996,1553.2706997394562
1997,1553.890704870224
1998,1554.512710094452
1999,1555.13671541214
2000,1555.7567205429077
2001,1556.360725402832
2002,1556.9627304077148
2003,1557.563735485077
2004,1558.1627404689789
2005,1558.7597455978394
2006,1559.352750301361
2007,1559.9507553577423
2008,1560.5427603721619
2009,1561.138765335083
2010,1561.739770412445
2011,1562.3437752723694
2012,1562.9497804641724
2013,1563.5567853450775
2014,1564.1657905578613
2015,1564.7797956466675
2016,1565.3928008079529
2017,1566.0058057308197
2018,1566.623811006546
2019,1567.242816209793
2020,1567.8658213615417
2021,1568.4888265132904
2022,1569.1158316135406
2023,1569.7428369522095
2024,1570.370842218399
2025,1570.9948472976685
2026,1571.622852563858
2027,1572.2428576946259
2028,1572.858862876892
2029,1573.4668679237366
2030,1574.074872970581
2031,1574.6868782043457
2032,1575.2988831996918
2033,1575.912888288498
2034,1576.5358934402466
2035,1577.1548986434937
2036,1577.7759037017822
2037,1578.3889088630676
2038,1578.9949140548706
2039,1579.6079189777374
2040,1580.2219240665436
2041,1580.8359293937683
2042,1581.4499344825745
2043,1582.0569393634796
2044,1582.6619443893433
2045,1583.270949602127
2046,1583.8799545764923
2047,1584.486959695816
2048,1585.098964691162
2049,1585.697969675064
2050,1586.3009748458862
2051,1586.9129798412323
2052,1587.5269849300385
2053,1588.141990184784
2054,1588.7569952011108
2055,1589.3740003108978
2056,1590.0010056495667
2057,1590.6360108852386
2058,1591.2780163288116
2059,1591.9150214195251
2060,1592.555026769638
2061,1593.1860320568085
2062,1593.8160374164581
2063,1594.4510426521301
2064,1595.091048002243
2065,1595.7370533943176
2066,1596.3820586204529
2067,1597.03906416893
2068,1597.6900696754456
2069,1598.3480751514435
2070,1599.0090806484222
2071,1599.668086051941
2072,1600.3290915489197
2073,1600.9940972328186
2074,1601.659102678299
2075,1602.332108259201
2076,1602.9891138076782
2077,1603.6391191482544
2078,1604.2741243839264
2079,1604.9141297340393
2080,1605.5611350536346
2081,1606.2031404972076
2082,1606.8431458473206
2083,1607.487151145935
2084,1608.127156496048
2085,1608.7721619606018
2086,1609.4081671237946
2087,1610.02117228508
2088,1610.6461775302887
2089,1611.2671825885773
2090,1611.8951878547668
2091,1612.511193037033
2092,1613.1141979694366
2093,1613.714203119278
2094,1614.3152079582214
2095,1614.9262130260468
2096,1615.5502183437347
2097,1616.1702234745026
2098,1616.796228647232
2099,1617.4142339229584
2100,1618.0332388877869
2101,1618.652244091034
2102,1619.2632491588593
2103,1619.8812544345856
2104,1620.4912593364716
2105,1621.104264497757
2106,1621.721269607544
2107,1622.3332748413086
2108,1622.944279909134
2109,1623.55628490448
2110,1624.1652901172638
2111,1624.7732951641083
2112,1625.389300107956
2113,1626.0003054141998
2114,1626.609310388565
2115,1627.2213153839111
2116,1627.8283205032349
2117,1628.4323256015778
2118,1629.043330669403
2119,1629.65833568573
2120,1630.2743408679962
2121,1630.8893461227417
2122,1631.5083510875702
2123,1632.1263563632965
2124,1632.7443614006042
2125,1633.3613665103912
2126,1633.9743716716766
2127,1634.5933768749237
2128,1635.2163820266724
2129,1635.8373873233795
2130,1636.458392381668
2131,1637.0883977413177
2132,1637.7214028835297
2133,1638.35040807724
2134,1638.9844133853912
2135,1639.6194186210632
2136,1640.2564239501953
2137,1640.8954293727875
2138,1641.5404345989227
2139,1642.174439907074
2140,1642.8084452152252
2141,1643.4394505023956
2142,1644.070455789566
2143,1644.7084610462189
2144,1645.3504664897919
2145,1645.9954717159271
2146,1646.6434772014618
2147,1647.3014826774597
2148,1647.9644882678986
2149,1648.624493598938
2150,1649.2764990329742
2151,1649.9255044460297
2152,1650.574509859085
2153,1651.2305154800415
2154,1651.8875207901
2155,1652.5415263175964
2156,1653.1985318660736
2157,1653.8485372066498
2158,1654.4745423793793
2159,1655.1085476875305
2160,1655.7555530071259
2161,1656.3965582847595
2162,1657.0365636348724
2163,1657.6735689640045
2164,1658.306574344635
2165,1658.9265794754028
2166,1659.540584564209
2167,1660.1515896320343
2168,1660.7555947303772
2169,1661.3585996627808
2170,1661.9526045322418
2171,1662.5536096096039
2172,1663.1616146564484
2173,1663.7756197452545
2174,1664.3986248970032
2175,1665.0376303195953
2176,1665.68563580513
2177,1666.343641281128
2178,1667.0036466121674
2179,1667.6636521816254
2180,1668.3236577510834
2181,1669.000663280487
2182,1669.67666888237
2183,1670.3396744728088
2184,1671.012680053711
2185,1671.6736855506897
2186,1672.327691078186
2187,1672.9726963043213
2188,1673.615701675415
2189,1674.255707025528
2190,1674.8897123336792
2191,1675.5307176113129
2192,1676.1887230873108
2193,1676.8787288665771
2194,1677.5997350215912
2195,1678.3217408657074
2196,1679.041746854782
2197,1679.7497527599335
2198,1680.474758863449
2199,1681.1987648010254
2200,1681.9067707061768
2201,1682.6027765274048
2202,1683.293782234192
2203,1683.9887881278992
2204,1684.7047941684723
2205,1685.417799949646
2206,1686.1488060951233
2207,1686.8928122520447
2208,1687.6348185539246
2209,1688.3858246803284
2210,1689.1028306484222
2211,1689.8278367519379
2212,1690.5498428344727
2213,1691.273848772049
2214,1692.0028548240662
2215,1692.7398610115051
2216,1693.479867219925
2217,1694.2138731479645
2218,1694.963879585266
2219,1695.7238857746124
2220,1696.4658920764923
2221,1697.214898109436
2222,1697.9619045257568
2223,1698.6959104537964
2224,1699.4279165267944
2225,1700.1479227542877
2226,1700.8569285869598
2227,1701.5809345245361
2228,1702.322940826416
2229,1703.0569467544556
2230,1703.8129532337189
2231,1704.559959411621
2232,1705.3089656829834
2233,1706.0379717350006
2234,1706.7559776306152
2235,1707.4749836921692
2236,1708.1819894313812
2237,1708.9159955978394
2238,1709.6520018577576
2239,1710.3880078792572
2240,1711.1390142440796
2241,1711.9020204544067
2242,1712.6470267772675
2243,1713.4030330181122
2244,1714.1640393733978
2245,1714.8990454673767
2246,1715.6440515518188
2247,1716.3730578422546
2248,1717.09406375885
2249,1717.8080697059631
2250,1718.520075559616
2251,1719.2340815067291
2252,1719.9650876522064
2253,1720.6810936927795
2254,1721.3980996608734
2255,1722.1181056499481
2256,1722.830111503601
2257,1723.53111743927
2258,1724.2231230735779
2259,1724.919128894806
2260,1725.6211347579956
2261,1726.3211405277252
2262,1727.0281465053558
2263,1727.7461524009705
2264,1728.4601583480835
2265,1729.1801643371582
2266,1729.902170419693
2267,1730.614176273346
2268,1731.3241822719574
2269,1732.0301880836487
2270,1732.7411940097809
2271,1733.455199956894
2272,1734.1592059135437
2273,1734.8722116947174
2274,1735.5902178287506
2275,1736.3042237758636
2276,1737.0292296409607
2277,1737.7542357444763
2278,1738.490241765976
2279,1739.2432482242584
2280,1739.9852542877197
2281,1740.7382605075836
2282,1741.4932668209076
2283,1742.2382731437683
2284,1742.981279373169
2285,1743.7142853736877
2286,1744.4412913322449
2287,1745.155297279358
2288,1745.871303319931
2289,1746.5923092365265
2290,1747.3173153400421
2291,1748.0373213291168
2292,1748.7723274230957
2293,1749.503333568573
2294,1750.2393395900726
2295,1750.995346069336
2296,1751.7413520812988
2297,1752.4883584976196
2298,1753.2213644981384
2299,1753.9413704872131
2300,1754.635376214981
2301,1755.3423821926117
2302,1756.1103885173798
2303,1756.862394809723
2304,1757.59140086174
2305,1758.308406829834
2306,1759.0184128284454
2307,1759.7034184932709
2308,1760.371423959732
2309,1761.0174293518066
2310,1761.6804349422455
2311,1762.3484404087067
2312,1763.0364463329315
2313,1763.7474522590637
2314,1764.50745844841
2315,1765.278464794159
2316,1766.0684714317322
2317,1766.8634781837463
2318,1767.6454846858978
2319,1768.4224910736084
2320,1769.1874973773956
2321,1769.9465038776398
2322,1770.6975100040436
2323,1771.4465162754059
2324,1772.198522567749
2325,1772.9455287456512
2326,1773.7005350589752
2327,1774.4375412464142
2328,1775.1645472049713
2329,1775.8745532035828
2330,1776.5645587444305
2331,1777.2245643138885
2332,1777.8775696754456
2333,1778.5525753498077
2334,1779.2415812015533
2335,1779.943587064743
2336,1780.6485929489136
2337,1781.3835990428925
2338,1782.1436052322388
2339,1782.9076116085052
2340,1783.668617963791
2341,1784.418624162674
2342,1785.1686305999756
2343,1785.910636663437
2344,1786.6416428089142
2345,1787.3856489658356
2346,1788.2356560230255
2347,1789.0666630268097
2348,1789.8586695194244
2349,1790.6106758117676
2350,1791.3256816864014
2351,1792.0056874752045
2352,1792.6816930770874
2353,1793.3566987514496
2354,1794.0437042713165
2355,1794.7417101860046
2356,1795.4597160816193
2357,1796.1737220287323
2358,1796.900728225708
2359,1797.637734413147
2360,1798.3977406024933
2361,1799.23974776268
2362,1800.0977547168732
2363,1800.8957614898682
2364,1801.7037682533264
2365,1802.5067749023438
2366,1803.294781446457
2367,1804.0927879810333
2368,1804.8877947330475
2369,1805.687801361084
2370,1806.494807958603
2371,1807.3008148670197
2372,1808.0908212661743
2373,1808.8778278827667
2374,1809.660834312439
2375,1810.4368407726288
2376,1811.228847503662
2377,1812.0298540592194
2378,1812.8258607387543
2379,1813.6258673667908
2380,1814.420874118805
2381,1815.242880821228
2382,1816.0468876361847
2383,1816.8278939723969
2384,1817.627900838852
2385,1818.4489076137543
2386,1819.2559142112732
2387,1820.0839211940765
2388,1820.9129281044006
2389,1821.7229347229004
2390,1822.5419416427612
2391,1823.3399484157562
2392,1824.1409549713135
2393,1824.9299614429474
2394,1825.690967798233
2395,1826.4609742164612
2396,1827.2459807395935
2397,1828.0259873867035
2398,1828.8319940567017
2399,1829.6600008010864
2400,1830.4740076065063
2401,1831.3000144958496
2402,1832.1220214366913
2403,1832.9170279502869
2404,1833.7400348186493
2405,1834.59304189682
2406,1835.394048690796
2407,1836.2120554447174
2408,1837.0040621757507
2409,1837.7560682296753
2410,1838.481074333191
2411,1839.2120804786682
2412,1839.9690866470337
2413,1840.7170929908752
2414,1841.4170987606049
2415,1842.1341047286987
2416,1842.8721108436584
2417,1843.5991170406342
2418,1844.3301229476929
2419,1845.0551290512085
2420,1845.8001353740692
2421,1846.5651416778564
2422,1847.3481481075287
2423,1848.1291546821594
2424,1848.9561614990234
2425,1849.7511682510376
2426,1850.5521748065948
2427,1851.3701815605164
2428,1852.1391880512238
2429,1852.9301946163177
2430,1853.6932010650635
2431,1854.4402072429657
2432,1855.194213628769
2433,1855.9512197971344
2434,1856.7072260379791
2435,1857.4592323303223
2436,1858.2142386436462
2437,1858.9762449264526
2438,1859.720251083374
2439,1860.4742574691772
2440,1861.2762641906738
2441,1862.1152710914612
2442,1862.9742782115936
2443,1863.822285413742
2444,1864.6412920951843
2445,1865.4282987117767
2446,1866.2153053283691
2447,1867.007311820984
2448,1867.8033185005188
2449,1868.5923249721527
2450,1869.377331495285
2451,1870.13933801651
2452,1870.9223444461823
2453,1871.7323513031006
2454,1872.5763583183289
2455,1873.4253652095795
2456,1874.270372390747
2457,1875.1103792190552
2458,1875.9183859825134
2459,1876.6933925151825
2460,1877.4683990478516
2461,1878.2394053936005
2462,1879.0274119377136
2463,1879.7984182834625
2464,1880.6124250888824
2465,1881.4024317264557
2466,1882.1784381866455
2467,1882.9684448242188
2468,1883.769451379776
2469,1884.565458059311
2470,1885.396465063095
2471,1886.1774713993073
2472,1886.945477962494
2473,1887.708484172821
2474,1888.4544904232025
2475,1889.220496892929
2476,1890.0315034389496
2477,1890.8355102539062
2478,1891.6285169124603
2479,1892.4555237293243
2480,1893.2495303153992
2481,1894.0735371112823
2482,1894.9035441875458
2483,1895.6795506477356
2484,1896.484557390213
2485,1897.2665638923645
2486,1898.0195701122284
2487,1898.7845764160156
2488,1899.5405826568604
2489,1900.2985889911652
2490,1901.0835955142975
2491,1901.8696022033691
2492,1902.6596086025238
2493,1903.4696154594421
2494,1904.2736220359802
2495,1905.0856289863586
2496,1905.9056358337402
2497,1906.6886422634125
2498,1907.4776487350464
2499,1908.2726554870605
2500,1909.0456619262695
2501,1909.8556685447693
2502,1910.693675518036
2503,1911.5076823234558
2504,1912.3276891708374
2505,1913.1056957244873
2506,1913.8697021007538
2507,1914.6237082481384
2508,1915.389714717865
2509,1916.157721042633
2510,1916.9377274513245
2511,1917.7067339420319
2512,1918.47674036026
2513,1919.2507467269897
2514,1920.0017530918121
2515,1920.797759771347
2516,1921.5917663574219
2517,1922.354772567749
2518,1923.132779121399
2519,1923.900785446167
2520,1924.655791759491
2521,1925.4317982196808
2522,1926.226804971695
2523,1927.0228116512299
2524,1927.8168182373047
2525,1928.6458251476288
2526,1929.430831670761
2527,1930.2308382987976
2528,1931.0098447799683
2529,1931.7628509998322
2530,1932.5218572616577
2531,1933.30686378479
2532,1934.068870306015
2533,1934.8738768100739
2534,1935.6878836154938
2535,1936.475890159607
2536,1937.2768969535828
2537,1938.0569033622742
2538,1938.8489100933075
2539,1939.625916481018
2540,1940.3849227428436
2541,1941.1459290981293
2542,1941.865935087204
2543,1942.584941148758
2544,1943.2899470329285
2545,1943.9819526672363
2546,1944.6519582271576
2547,1945.3509640693665
2548,1946.075970172882
2549,1946.80597615242
2550,1947.5349822044373
2551,1948.279988527298
2552,1949.0229947566986
2553,1949.7990012168884
2554,1950.5820076465607
2555,1951.3480141162872
2556,1952.1130204200745
2557,1952.8780267238617
2558,1953.6410331726074
2559,1954.4210395812988
2560,1955.2170462608337
2561,1956.027053117752
2562,1956.8630599975586
2563,1957.7100670337677
2564,1958.5290739536285
2565,1959.3840808868408
2566,1960.210087776184
2567,1961.0320947170258
2568,1961.8641016483307
2569,1962.7051086425781
2570,1963.4981153011322
2571,1964.3301222324371
2572,1965.1681292057037
2573,1965.9761357307434
2574,1966.7911427021027
2575,1967.6001493930817
2576,1968.37215590477
2577,1969.1101620197296
2578,1969.8761682510376
2579,1970.7091753482819
2580,1971.5271821022034
2581,1972.3201887607574
2582,1973.1221952438354
2583,1973.9342021942139
2584,1974.7182085514069
2585,1975.533215522766
2586,1976.327222108841
2587,1977.1212286949158
2588,1977.9202353954315
2589,1978.7042417526245
2590,1979.506248474121
2591,1980.2762548923492
2592,1981.039261341095
2593,1981.8142676353455
2594,1982.5842740535736
2595,1983.355280637741
2596,1984.1522872447968
2597,1984.955293893814
2598,1985.7433004379272
2599,1986.540307044983
2600,1987.3243136405945
2601,1988.0763199329376
2602,1988.838326215744
2603,1989.5813324451447
2604,1990.3333387374878
2605,1991.1183452606201
2606,1991.9083516597748
2607,1992.6813580989838
2608,1993.4843649864197
2609,1994.357372045517
2610,1995.2153792381287
2611,1996.0573863983154
2612,1996.9023933410645
2613,1997.7154002189636
2614,1998.5514070987701
2615,1999.358413696289
2616,2000.159420490265
2617,2001.019427537918
2618,2001.8494346141815
2619,2002.6634411811829
2620,2003.4804480075836
2621,2004.2804548740387
2622,2005.0904614925385
2623,2005.931468486786
2624,2006.7664754390717
2625,2007.571482181549
2626,2008.3934888839722
2627,2009.2084958553314
2628,2009.998502254486
2629,2010.8095090389252
2630,2011.603515625
2631,2012.4235224723816
2632,2013.2935297489166
2633,2014.1295368671417
2634,2014.9375433921814
2635,2015.759550333023
2636,2016.5315568447113
2637,2017.26256275177
2638,2017.9905688762665
2639,2018.7605752944946
2640,2019.5285816192627
2641,2020.2815880775452
2642,2021.068594455719
2643,2021.8816013336182
2644,2022.6476075649261
2645,2023.4316141605377
2646,2024.2326209545135
2647,2025.0106272697449
2648,2025.8366341590881
2649,2026.668641090393
2650,2027.4796478748322
2651,2028.336655139923
2652,2029.179661989212
2653,2029.9996688365936
2654,2030.802675485611
2655,2031.5746819972992
2656,2032.3336882591248
2657,2033.0976946353912
2658,2033.896701335907
2659,2034.7047080993652
2660,2035.5727152824402
2661,2036.3877220153809
2662,2037.2107288837433
2663,2038.0287356376648
2664,2038.8427424430847
2665,2039.6587493419647
2666,2040.502756357193
2667,2041.3537633419037
2668,2042.1737701892853
2669,2043.0127773284912
2670,2043.8417842388153
2671,2044.6677911281586
2672,2045.4867978096008
2673,2046.2458040714264
2674,2047.0098104476929
2675,2047.781816959381
2676,2048.539823293686
2677,2049.3368299007416
2678,2050.1458365917206
2679,2050.9248430728912
2680,2051.7478499412537
2681,2052.552856683731
2682,2053.3508632183075
2683,2054.1538701057434
2684,2054.943876504898
2685,2055.7298831939697
2686,2056.5268898010254
2687,2057.3298964500427
2688,2058.1249029636383
2689,2058.928909778595
2690,2059.7449164390564
2691,2060.553923368454
2692,2061.3919303417206
2693,2062.2349371910095
2694,2063.0539441108704
2695,2063.870950937271
2696,2064.6759576797485
2697,2065.476964235306
2698,2066.27197098732
2699,2067.0689775943756
2700,2067.848984003067
2701,2068.6559908390045
2702,2069.463997364044
2703,2070.2330038547516
2704,2071.04301071167
2705,2071.8730175495148
2706,2072.674024105072
2707,2073.4860310554504
2708,2074.2700374126434
2709,2075.0250437259674
2710,2075.765049934387
2711,2076.6170570850372
2712,2077.490064382553
2713,2078.3140711784363
2714,2079.095077753067
2715,2079.8510839939117
2716,2080.577090024948
2717,2081.28409576416
2718,2081.972101688385
2719,2082.6771075725555
2720,2083.3821132183075
2721,2084.1291196346283
2722,2084.890125989914
2723,2085.660132408142
2724,2086.503139257431
2725,2087.356146335602
2726,2088.2061533927917
2727,2089.0811607837677
2728,2089.9131677150726
2729,2090.7281744480133
2730,2091.547181367874
2731,2092.354187965393
2732,2093.1921949386597
2733,2094.0242018699646
2734,2094.829208612442
2735,2095.660215616226
2736,2096.4612221717834
2737,2097.282228946686
2738,2098.1022357940674
2739,2098.904242515564
2740,2099.7112493515015
2741,2100.504255771637
2742,2101.333262681961
2743,2102.1442694664
2744,2102.9732763767242
2745,2103.795283317566
2746,2104.603290081024
2747,2105.433296918869
2748,2106.2793040275574
2749,2107.1043107509613
2750,2107.9363176822662
2751,2108.773324728012
2752,2109.592331647873
2753,2110.4073383808136
2754,2111.194344997406
2755,2112.0223517417908
2756,2112.87335896492
2757,2113.720366001129
2758,2114.5603728294373
2759,2115.3473794460297
2760,2116.1403861045837
2761,2116.944392681122
2762,2117.7313992977142
2763,2118.53240609169
2764,2119.326412677765
2765,2120.097419023514
2766,2120.883425474167
2767,2121.6614320278168
2768,2122.428438425064
2769,2123.2084448337555
2770,2123.974451303482
2771,2124.765457868576
2772,2125.5304641723633
2773,2126.2924706935883
2774,2127.063477039337
2775,2127.8334834575653
2776,2128.602489709854
2777,2129.400496482849
2778,2130.1775028705597
2779,2130.9605095386505
2780,2131.742516040802
2781,2132.5175223350525
2782,2133.314528942108
2783,2134.096535682678
2784,2134.865541934967
2785,2135.646548509598
2786,2136.4275550842285
2787,2137.217561483383
2788,2138.0125682353973
2789,2138.788574695587
2790,2139.5525810718536
2791,2140.327587366104
2792,2141.0915937423706
2793,2141.8676002025604
2794,2142.6396067142487
2795,2143.422613143921
2796,2144.251620054245
2797,2145.0406267642975
2798,2145.819633245468
2799,2146.6026396751404
2800,2147.37664604187
2801,2148.157652616501
2802,2148.950659275055
2803,2149.758666038513
2804,2150.5956728458405
2805,2151.4086797237396
2806,2152.2436866760254
2807,2153.101693868637
2808,2153.952700853348
2809,2154.7977080345154
2810,2155.615714788437
2811,2156.447721719742
2812,2157.256728410721
2813,2158.0507349967957
2814,2158.8457415103912
2815,2159.626748085022
2816,2160.4077546596527
2817,2161.177761077881
2818,2161.95276761055
2819,2162.7477741241455
2820,2163.580780982971
2821,2164.4057879447937
2822,2165.2177946567535
2823,2166.002801179886
2824,2166.816807985306
2825,2167.60981464386
2826,2168.387820959091
2827,2169.172827720642
2828,2169.9478340148926
2829,2170.7268404960632
2830,2171.507847070694
2831,2172.3338539600372
2832,2173.1548607349396
2833,2173.9608674049377
2834,2174.7858743667603
2835,2175.5918810367584
2836,2176.388887643814
2837,2177.1708941459656
2838,2177.955900669098
2839,2178.747907400131
2840,2179.5329139232635
2841,2180.3059203624725
2842,2181.0719265937805
2843,2181.8289330005646
2844,2182.569939136505
2845,2183.3009452819824
2846,2184.072951555252
2847,2184.8289580345154
2848,2185.5789642333984
2849,2186.3159704208374
2850,2187.049976348877
2851,2187.755982398987
2852,2188.436987876892
2853,2189.1029934883118
2854,2189.794999361038
2855,2190.5210053920746
2856,2191.2910118103027
2857,2192.13001871109
2858,2193.008026123047
2859,2193.8790333271027
2860,2194.7830407619476
2861,2195.6330478191376
2862,2196.484055042267
2863,2197.347062110901
2864,2198.197069168091
2865,2199.0140759944916
2866,2199.821082830429
2867,2200.610089302063
2868,2201.385095834732
2869,2202.15110206604
2870,2202.9011085033417
2871,2203.6471145153046
2872,2204.3661205768585
2873,2205.0701265335083
2874,2205.7631323337555
2875,2206.486138343811
2876,2207.2691447734833
2877,2208.084151506424
2878,2208.9081585407257
2879,2209.824166059494
2880,2210.7191734313965
2881,2211.5881807804108
2882,2212.465188026428
2883,2213.3291952610016
2884,2214.17520236969
2885,2215.0272092819214
2886,2215.8712162971497
2887,2216.6912231445312
2888,2217.5322301387787
2889,2218.365237236023
2890,2219.1632437705994
2891,2219.985250711441
2892,2220.8012573719025
2893,2221.6102643013
2894,2222.4522712230682
2895,2223.300278186798
2896,2224.121285200119
2897,2224.920291662216
2898,2225.6762981414795
2899,2226.4243042469025
2900,2227.1543102264404
2901,2227.862316131592
2902,2228.613322496414
2903,2229.3633286952972
2904,2230.141335248947
2905,2230.9363417625427
2906,2231.7223484516144
2907,2232.5573554039
2908,2233.3803622722626
2909,2234.1863689422607
2910,2234.9983756542206
2911,2235.778382062912
2912,2236.536388397217
2913,2237.316395044327
2914,2238.0934014320374
2915,2238.8684079647064
2916,2239.6534144878387
2917,2240.420420885086
2918,2241.191427230835
2919,2241.981433868408
2920,2242.7434401512146
2921,2243.5044465065002
2922,2244.2704527378082
2923,2245.0374591350555
2924,2245.8284657001495
2925,2246.6094722747803
2926,2247.3814787864685
2927,2248.181485414505
2928,2248.956491947174
2929,2249.706498146057
2930,2250.475504398346
2931,2251.2315108776093
2932,2251.989517211914
2933,2252.7495234012604
2934,2253.533529996872
2935,2254.3035364151
2936,2255.094542980194
2937,2255.8945496082306
2938,2256.674556016922
2939,2257.4765627384186
2940,2258.2415692806244
2941,2259.0665760040283
2942,2259.849582672119
2943,2260.617588996887
2944,2261.412595510483
2945,2262.197602033615
2946,2262.9496083259583
2947,2263.710614681244
2948,2264.4726209640503
2949,2265.2256274223328
2950,2266.0016338825226
2951,2266.7936403751373
2952,2267.572646856308
2953,2268.3646533489227
2954,2269.128659725189
2955,2269.8826661109924
2956,2270.6556725502014
2957,2271.419678926468
2958,2272.169685125351
2959,2272.926691532135
2960,2273.6906979084015
2961,2274.4387040138245
2962,2275.223710536957
2963,2275.9837169647217
2964,2276.75372338295
2965,2277.5177297592163
2966,2278.263735771179
2967,2279.0177421569824
2968,2279.7647483348846
2969,2280.5077545642853
2970,2281.2557606697083
2971,2282.031767129898
2972,2282.7877736091614
2973,2283.538779735565
2974,2284.321786403656
2975,2285.087792634964
2976,2285.878799200058
2977,2286.672805786133
2978,2287.4538123607635
2979,2288.2168188095093
2980,2288.9598248004913
2981,2289.6728308200836
2982,2290.36283659935
2983,2291.058842420578
2984,2291.7648482322693
2985,2292.446853876114
2986,2293.1328597068787
2987,2293.8658657073975
2988,2294.5868718624115
2989,2295.3218779563904
2990,2296.0668840408325
2991,2296.8068902492523
2992,2297.564896583557
2993,2298.3219027519226
2994,2299.0659091472626
2995,2299.8139152526855
2996,2300.5529215335846
2997,2301.289927482605
2998,2302.0459339618683
2999,2302.7939400672913
3000,2303.559946537018
3001,2304.3369529247284
3002,2305.1019592285156
3003,2305.865965604782
3004,2306.6089718341827
3005,2307.3309779167175
3006,2308.0599839687347
3007,2308.7719898223877
3008,2309.48299574852
3009,2310.195001602173
3010,2310.910007715225
3011,2311.635013818741
3012,2312.3710198402405
3013,2313.127026081085
3014,2313.872032403946
3015,2314.6130385398865
3016,2315.362044811249
3017,2316.1180510520935
3018,2316.856057167053
3019,2317.612063407898
3020,2318.362069606781
3021,2319.1290760040283
3022,2319.8980824947357
3023,2320.6690888404846
3024,2321.4460954666138
3025,2322.2101018428802
3026,2322.958107948303
3027,2323.7201142311096
3028,2324.4771206378937
3029,2325.2121267318726
3030,2325.974133014679
3031,2326.7381393909454
3032,2327.4911456108093
3033,2328.2401518821716
3034,2328.9591579437256
3035,2329.685163974762
3036,2330.456170320511
3037,2331.2201766967773
3038,2331.988183259964
3039,2332.7621896266937
3040,2333.5331959724426
3041,2334.295202255249
3042,2335.055208683014
3043,2335.809215068817
3044,2336.5502212047577
3045,2337.296227455139
3046,2338.0482335090637
3047,2338.805239915848
3048,2339.572246313095
3049,2340.3622529506683
3050,2341.172259569168
3051,2341.965266227722
3052,2342.756272792816
3053,2343.552279472351
3054,2344.3422861099243
3055,2345.088292121887
3056,2345.833298444748
3057,2346.581304550171
3058,2347.3343110084534
3059,2348.0763170719147
3060,2348.846323490143
3061,2349.618330001831
3062,2350.402336359024
3063,2351.1943430900574
3064,2351.976349592209
3065,2352.7583560943604
3066,2353.5293624401093
3067,2354.2753686904907
3068,2355.043375015259
3069,2355.8273816108704
3070,2356.5873880386353
3071,2357.3803944587708
3072,2358.152400970459
3073,2358.928407430649
3074,2359.7174141407013
3075,2360.48842048645
3076,2361.267426967621
3077,2362.0474333763123
3078,2362.8124396800995
3079,2363.5514459609985
3080,2364.3014521598816
3081,2365.101458787918
3082,2365.9054656028748
3083,2366.673471927643
3084,2367.4504783153534
3085,2368.208484649658
3086,2368.9644911289215
3087,2369.7124972343445
3088,2370.4595034122467
3089,2371.254510164261
3090,2372.0115163326263
3091,2372.759522676468
3092,2373.5315289497375
3093,2374.3115355968475
3094,2375.1105422973633
3095,2375.921548843384
3096,2376.733555793762
3097,2377.510562181473
3098,2378.34956908226
3099,2379.191576242447
3100,2380.0095829963684
3101,2380.847589969635
3102,2381.6655967235565
3103,2382.470603466034
3104,2383.2936103343964
3105,2384.113617181778
3106,2384.902623653412
3107,2385.7016303539276
3108,2386.4726366996765
3109,2387.2376432418823
3110,2387.996649503708
3111,2388.78165602684
3112,2389.5536625385284
3113,2390.3386690616608
3114,2391.1136753559113
3115,2391.8806817531586
3116,2392.6996886730194
3117,2393.496695280075
3118,2394.2867019176483
3119,2395.0937085151672
3120,2395.8607149124146
3121,2396.6357214450836
3122,2397.39572763443
3123,2398.1387338638306
3124,2398.884740114212
3125,2399.657746553421
3126,2400.4247529506683
3127,2401.218759536743
3128,2401.992765903473
3129,2402.75977230072
3130,2403.5647790431976
3131,2404.328785419464
3132,2405.068791627884
3133,2405.795797586441
3134,2406.557804107666
3135,2407.292810201645
3136,2408.0078160762787
3137,2408.7048218250275
3138,2409.394827604294
3139,2410.085833311081
3140,2410.781839132309
3141,2411.4888451099396
3142,2412.207850933075
3143,2412.9328570365906
3144,2413.6718633174896
3145,2414.4068694114685
3146,2415.1848757267
3147,2415.984882593155
3148,2416.775889158249
3149,2417.5958960056305
3150,2418.464903116226
3151,2419.2519097328186
3152,2420.094916820526
3153,2420.920923471451
3154,2421.7449305057526
3155,2422.58393740654
3156,2423.4269444942474
3157,2424.2569513320923
3158,2425.0909583568573
3159,2425.908965110779
3160,2426.7129719257355
3161,2427.5169785022736
3162,2428.31698513031
3163,2429.111991882324
3164,2429.9309985637665
3165,2430.734005212784
3166,2431.527011871338
3167,2432.343018770218
3168,2433.1530253887177
3169,2433.9680321216583
3170,2434.7890391349792
3171,2435.594045639038
3172,2436.4020524024963
3173,2437.2070591449738
3174,2438.0030658245087
3175,2438.7830722332
3176,2439.5680787563324
3177,2440.3610854148865
3178,2441.1730921268463
3179,2441.990098953247
3180,2442.7851057052612
3181,2443.6031124591827
3182,2444.3971190452576
3183,2445.2011256217957
3184,2446.014132499695
3185,2446.797138929367
3186,2447.5841455459595
3187,2448.3551518917084
3188,2449.1121582984924
3189,2449.8671646118164
3190,2450.6151707172394
3191,2451.3951773643494
3192,2452.2191841602325
3193,2453.004190683365
3194,2453.854197740555
3195,2454.6432044506073
3196,2455.454210996628
3197,2456.2612178325653
3198,2457.045224428177
3199,2457.853231191635
3200,2458.6482377052307
3201,2459.4232442379
3202,2460.224250793457
3203,2461.030257463455
3204,2461.8172640800476
3205,2462.6162707805634
3206,2463.410277366638
3207,2464.189283847809
3208,2464.9702904224396
3209,2465.7462968826294
3210,2466.5123031139374
3211,2467.270309448242
3212,2468.028315782547
3213,2468.803322315216
3214,2469.5603284835815
3215,2470.321334838867
3216,2471.1143414974213
3217,2471.893347978592
3218,2472.7123548984528
3219,2473.4943614006042
3220,2474.2923679351807
3221,2475.0763745307922
3222,2475.845380783081
3223,2476.603387117386
3224,2477.3473932743073
3225,2478.107399702072
3226,2478.8774061203003
3227,2479.638412475586
3228,2480.413419008255
3229,2481.177425146103
3230,2481.947431564331
3231,2482.7084379196167
3232,2483.446444272995
3233,2484.2024505138397
3234,2484.946456670761
3235,2485.6754627227783
3236,2486.4064688682556
3237,2487.1334748268127
3238,2487.86648106575
3239,2488.614487171173
3240,2489.3664934635162
3241,2490.12149977684
3242,2490.8865060806274
3243,2491.652512550354
3244,2492.428519010544
3245,2493.1925253868103
3246,2493.948531627655
3247,2494.688537836075
3248,2495.436543941498
3249,2496.18755030632
3250,2496.945556640625
3251,2497.726562976837
3252,2498.507569551468
3253,2499.2765760421753
3254,2500.0385823249817
3255,2500.8195888996124
3256,2501.599595308304
3257,2502.366601705551
3258,2503.1356081962585
3259,2503.8836143016815
3260,2504.634620666504
3261,2505.381626844406
3262,2506.114632844925
3263,2506.8736391067505
3264,2507.619645357132
3265,2508.3496515750885
3266,2509.0996577739716
3267,2509.863664150238
3268,2510.611670255661
3269,2511.3926768302917
3270,2512.1686832904816
3271,2512.9246895313263
3272,2513.690696001053
3273,2514.4627022743225
3274,2515.2227087020874
3275,2515.9877150058746
3276,2516.7497215270996
3277,2517.4927275180817
3278,2518.243733882904
3279,2518.994740009308
3280,2519.7267463207245
3281,2520.470752477646
3282,2521.2107586860657
3283,2521.972764968872
3284,2522.7477712631226
3285,2523.500777721405
3286,2524.270784139633
3287,2525.036790370941
3288,2525.7957966327667
3289,2526.5638031959534
3290,2527.3058092594147
3291,2528.0328154563904
3292,2528.7788214683533
3293,2529.54482793808
3294,2530.277834177017
3295,2530.9838399887085
3296,2531.6948459148407
3297,2532.405851840973
3298,2533.1228578090668
3299,2533.8598639965057
3300,2534.5928699970245
3301,2535.328876018524
3302,2536.0798823833466
3303,2536.8378887176514
3304,2537.601895093918
3305,2538.38490152359
3306,2539.182908296585
3307,2539.994915008545
3308,2540.831921815872
3309,2541.658928871155
3310,2542.484935760498
3311,2543.3179426193237
3312,2544.148949623108
3313,2544.975956439972
3314,2545.789963245392
3315,2546.6079699993134
3316,2547.408976793289
3317,2548.2199833393097
3318,2549.0339901447296
3319,2549.821996688843
3320,2550.6230034828186
3321,2551.421010017395
3322,2552.2210166454315
3323,2553.0370235443115
3324,2553.8740305900574
3325,2554.7210376262665
3326,2555.5640444755554
3327,2556.3850514888763
3328,2557.2140583992004
3329,2558.0220651626587
3330,2558.8490719795227
3331,2559.6620786190033
3332,2560.4490852355957
3333,2561.260092020035
3334,2562.069098711014
3335,2562.864105463028
3336,2563.6611120700836
3337,2564.4341185092926
3338,2565.2461252212524
3339,2566.0241317749023
3340,2566.8071382045746
3341,2567.556144475937
3342,2568.30615067482
3343,2569.0311567783356
3344,2569.7331626415253
3345,2570.4221682548523
3346,2571.122174024582
3347,2571.817179918289
3348,2572.517185688019
3349,2573.2091915607452
3350,2573.911197423935
3351,2574.6262032985687
3352,2575.3632094860077
3353,2576.1062157154083
3354,2576.8532218933105
3355,2577.620228290558
3356,2578.404234647751
3357,2579.192241191864
3358,2579.9802479743958
3359,2580.768254518509
3360,2581.5582609176636
3361,2582.3512675762177
3362,2583.1472742557526
3363,2583.9382808208466
3364,2584.7472875118256
3365,2585.575294494629
3366,2586.4213016033173
3367,2587.2633085250854
3368,2588.098315477371
3369,2588.9453225135803
3370,2589.770329475403
3371,2590.579336166382
3372,2591.3953428268433
3373,2592.196349620819
3374,2593.007356405258
3375,2593.819363117218
3376,2594.6343698501587
3377,2595.4503767490387
3378,2596.274383544922
3379,2597.1333906650543
3380,2597.96839761734
3381,2598.7884044647217
3382,2599.59841132164
3383,2600.392417907715
3384,2601.196424484253
3385,2601.9884312152863
3386,2602.7894377708435
3387,2603.6024446487427
3388,2604.390451192856
3389,2605.1824576854706
3390,2605.962464094162
3391,2606.724470615387
3392,2607.5064771175385
3393,2608.28448343277
3394,2609.0484898090363
3395,2609.788496017456
3396,2610.527502298355
3397,2611.3765091896057
3398,2612.1745159626007
3399,2612.9655225276947
3400,2613.7625291347504
3401,2614.546535730362
3402,2615.3415422439575
3403,2616.12654876709
3404,2616.8955552577972
3405,2617.6775617599487
3406,2618.4615683555603
3407,2619.236574649811
3408,2620.0185811519623
3409,2620.797587633133
3410,2621.569594144821
3411,2622.3316004276276
3412,2623.110606908798
3413,2623.9336137771606
3414,2624.781620979309
3415,2625.6006276607513
3416,2626.4266345500946
3417,2627.239641427994
3418,2628.027647972107
3419,2628.834654569626
3420,2629.6286611557007
3421,2630.417667865753
3422,2631.207674264908
3423,2631.9896807670593
3424,2632.7866876125336
3425,2633.545693874359
3426,2634.3077001571655
3427,2635.066706418991
3428,2635.842712879181
3429,2636.622719526291
3430,2637.406725883484
3431,2638.2127327919006
3432,2639.0167393684387
3433,2639.821746110916
3434,2640.6217527389526
3435,2641.4127593040466
3436,2642.201766014099
3437,2642.957772254944
3438,2643.699778318405
3439,2644.4107842445374
3440,2645.140790462494
3441,2645.854796409607
3442,2646.5578022003174
3443,2647.244807958603
3444,2647.950813770294
3445,2648.6568195819855
3446,2649.382825613022
3447,2650.1078317165375
3448,2650.8388378620148
3449,2651.5768439769745
3450,2652.3278501033783
3451,2653.0868566036224
3452,2653.8828630447388
3453,2654.6818697452545
3454,2655.5388770103455
3455,2656.415884256363
3456,2657.267891407013
3457,2658.1628987789154
3458,2659.0739064216614
3459,2659.9799139499664
3460,2660.858921289444
3461,2661.707928419113
3462,2662.5599353313446
3463,2663.421942472458
3464,2664.288949728012
3465,2665.0929565429688
3466,2665.9109632968903
3467,2666.714970111847
3468,2667.4999766349792
3469,2668.288983106613
3470,2669.080989599228
3471,2669.898996591568
3472,2670.7330033779144
3473,2671.5800104141235
3474,2672.4010174274445
3475,2673.2620244026184
3476,2674.0910313129425
3477,2674.8690378665924
3478,2675.6380443573
3479,2676.3990507125854
3480,2677.1310567855835
3481,2677.8610627651215
3482,2678.6520693302155
3483,2679.456076145172
3484,2680.266082763672
3485,2681.1080899238586
3486,2681.92409658432
3487,2682.7391033172607
3488,2683.5591101646423
3489,2684.3471167087555
3490,2685.114123106003
3491,2685.866129398346
3492,2686.703136444092
3493,2687.491142988205
3494,2688.2861495018005
3495,2689.078156232834
3496,2689.8401625156403
3497,2690.588168859482
3498,2691.355175256729
3499,2692.180181980133
3500,2692.9771885871887
3501,2693.7971954345703
3502,2694.6412024497986
3503,2695.4572093486786
3504,2696.2662160396576
3505,2697.066222667694
3506,2697.875229358673
3507,2698.686236143112
3508,2699.480242729187
3509,2700.2292490005493
3510,2701.00625538826
3511,2701.8002622127533
3512,2702.6172688007355
3513,2703.444275856018
3514,2704.271282672882
3515,2705.116289615631
3516,2705.9722969532013
3517,2706.818303823471
3518,2707.62931060791
3519,2708.428317308426
3520,2709.2103238105774
3521,2709.972330093384
3522,2710.6893360614777
3523,2711.392341852188
3524,2712.106347799301
3525,2712.850354194641
3526,2713.6153604984283
3527,2714.3833668231964
3528,2715.165373325348
3529,2715.940379858017
3530,2716.7393865585327
3531,2717.5673933029175
3532,2718.397400379181
3533,2719.241407394409
3534,2720.0704143047333
3535,2720.878420829773
3536,2721.694427728653
3537,2722.5014345645905
3538,2723.315441131592
3539,2724.141448020935
3540,2724.947454929352
3541,2725.7524614334106
3542,2726.5454680919647
3543,2727.314474582672
3544,2728.106481075287
3545,2728.902487754822
3546,2729.754494905472
3547,2730.540501356125
3548,2731.3475081920624
3549,2732.1695148944855
3550,2732.9475214481354
3551,2733.7405281066895
3552,2734.5275344848633
3553,2735.306540966034
3554,2736.102547645569
3555,2736.8705542087555
3556,2737.6565606594086
3557,2738.4265670776367
3558,2739.1925733089447
3559,2739.963579893112
3560,2740.696585893631
3561,2741.4215919971466
3562,2742.109597682953
3563,2742.786603450775
3564,2743.457608938217
3565,2744.115614414215
3566,2744.7796199321747
3567,2745.4326252937317
3568,2746.104630947113
3569,2746.7716364860535
3570,2747.422641992569
3571,2748.0816473960876
3572,2748.748652935028
3573,2749.4306585788727
3574,2750.1166644096375
3575,2750.8106701374054
3576,2751.5196759700775
3577,2752.2156817913055
3578,2752.902687549591
3579,2753.5766932964325
3580,2754.240698814392
3581,2754.8797039985657
3582,2755.511709213257
3583,2756.127714395523
3584,2756.7427196502686
3585,2757.350724697113
3586,2757.9567296504974
3587,2758.5707347393036
3588,2759.183739900589
3589,2759.81374502182
3590,2760.450750350952
3591,2761.080755710602
3592,2761.7267611026764
3593,2762.375766515732
3594,2763.0317718982697
3595,2763.6977775096893
3596,2764.359782934189
3597,2765.014788389206
3598,2765.6757938861847
3599,2766.3387994766235
3600,2767.0148050785065
3601,2767.6928107738495
3602,2768.377816438675
3603,2769.063822031021
3604,2769.754827976227
3605,2770.438833475113
3606,2771.116839170456
3607,2771.793844938278
3608,2772.472850561142
3609,2773.145856142044
3610,2773.819861650467
3611,2774.49786734581
3612,2775.167872905731
3613,2775.8398785591125
3614,2776.509884119034
3615,2777.1718895435333
3616,2777.8288950920105
3617,2778.4859006404877
3618,2779.1389060020447
3619,2779.790911436081
3620,2780.430916786194
3621,2781.0719220638275
3622,2781.717927455902
3623,2782.3649327754974
3624,2783.0119383335114
3625,2783.657943725586
3626,2784.3039491176605
3627,2784.955954551697
3628,2785.605959892273
3629,2786.25696516037
3630,2786.900970697403
3631,2787.5419759750366
3632,2788.175981283188
3633,2788.8119864463806
3634,2789.447991847992
3635,2790.082997083664
3636,2790.7290024757385
3637,2791.376007795334
3638,2792.0270133018494
3639,2792.675018787384
3640,2793.326024055481
3641,2793.9790296554565
3642,2794.6290349960327
3643,2795.280040502548
3644,2795.9270458221436
3645,2796.5770511627197
3646,2797.234056711197
3647,2797.8880620002747
3648,2798.540067434311
3649,2799.197072982788
3650,2799.853078365326
3651,2800.513083934784
3652,2801.1810896396637
3653,2801.8580951690674
3654,2802.525100708008
3655,2803.190106153488
3656,2803.8611118793488
3657,2804.5401175022125
3658,2805.210123062134
3659,2805.883128643036
3660,2806.561134338379
3661,2807.2481400966644
3662,2807.9471459388733
3663,2808.660151720047
3664,2809.3701577186584
3665,2810.067163467407
3666,2810.7541692256927
3667,2811.4341747760773
3668,2812.128180742264
3669,2812.8311865329742
3670,2813.5591926574707
3671,2814.299198627472
3672,2815.016204595566
3673,2815.729210615158
3674,2816.4362165927887
3675,2817.1352224349976
3676,2817.8242280483246
3677,2818.514233827591
3678,2819.2062397003174
3679,2819.8942453861237
3680,2820.5752511024475
3681,2821.2542567253113
3682,2821.9352622032166
3683,2822.6202681064606
3684,2823.3102736473083
3685,2824.0082795619965
3686,2824.7052853107452
3687,2825.394291162491
3688,2826.080296754837
3689,2826.7643024921417
3690,2827.444308280945
3691,2828.1313138008118
3692,2828.816319704056
3693,2829.4883251190186
3694,2830.1673307418823
3695,2830.8593366146088
3696,2831.5613424777985
3697,2832.2493481636047
3698,2832.944354057312
3699,2833.637359857559
3700,2834.3403656482697
3701,2835.0393714904785
3702,2835.7493772506714
3703,2836.477383375168
3704,2837.22438955307
3705,2837.9503955841064
3706,2838.6634016036987
3707,2839.3824076652527
3708,2840.090413570404
3709,2840.7884192466736
3710,2841.4844250679016
3711,2842.1834309101105
3712,2842.8944368362427
3713,2843.595442533493
3714,2844.3044486045837
3715,2845.0144543647766
3716,2845.724460363388
3717,2846.4294662475586
3718,2847.121472120285
3719,2847.812477827072
3720,2848.5024836063385
3721,2849.1914892196655
3722,2849.8704948425293
3723,2850.53950047493
3724,2851.2035059928894
3725,2851.8575115203857
3726,2852.512516975403
3727,2853.1705224514008
3728,2853.825527906418
3729,2854.4835333824158
3730,2855.150538921356
3731,2855.809544324875
3732,2856.477549791336
3733,2857.1365554332733
3734,2857.7895607948303
3735,2858.4415662288666
3736,2859.075571537018
3737,2859.7085769176483
3738,2860.334582090378
3739,2860.9505870342255
3740,2861.56259226799
3741,2862.1685972213745
3742,2862.7796022892
3743,2863.398607492447
3744,2864.032612800598
3745,2864.673618078232
3746,2865.3296236991882
3747,2865.987629175186
3748,2866.6656346321106
3749,2867.359640598297
3750,2868.1016466617584
3751,2868.9916541576385
3752,2869.758660554886
3753,2870.5326669216156
3754,2871.3036732673645
3755,2872.056679725647
3756,2872.80268573761
3757,2873.5306918621063
3758,2874.24569773674
3759,2874.9687037467957
3760,2875.6907098293304
3761,2876.3997156620026
3762,2877.0987215042114
3763,2877.8047275543213
3764,2878.5117332935333
3765,2879.220739364624
3766,2879.9367451667786
3767,2880.6637513637543
3768,2881.3907573223114
3769,2882.1257634162903
3770,2882.860769510269
3771,2883.5967757701874
3772,2884.3267817497253
3773,2885.0577878952026
3774,2885.7847938537598
3775,2886.498799800873
3776,2887.2228059768677
3777,2887.944811820984
3778,2888.6508178710938
3779,2889.364823818207
3780,2890.073829650879
3781,2890.786835670471
3782,2891.499841451645
3783,2892.2038474082947
3784,2892.9238533973694
3785,2893.644859313965
3786,2894.363865375519
3787,2895.0848712921143
3788,2895.7958772182465
3789,2896.5148832798004
3790,2897.222889184952
3791,2897.9178948402405
3792,2898.6139006614685
3793,2899.339906692505
3794,2900.0459127426147
3795,2900.7409183979034
3796,2901.422924041748
3797,2902.0939297676086
3798,2902.779935359955
3799,2903.473941087723
3800,2904.163946866989
3801,2904.87295293808
3802,2905.5859587192535
3803,2906.3229649066925
3804,2907.061970949173
3805,2907.787977218628
3806,2908.519983291626
3807,2909.2789895534515
3808,2910.0439958572388
3809,2910.8070023059845
3810,2911.5730085372925
3811,2912.326014995575
3812,2913.090021133423
3813,2913.860027551651
3814,2914.6060338020325
3815,2915.351040124893
3816,2916.086046218872
3817,2916.824052333832
3818,2917.548058271408
3819,2918.267064332962
3820,2918.9750702381134
3821,2919.690076112747
3822,2920.393082141876
3823,2921.080087661743
3824,2921.764093399048
3825,2922.4490990638733
3826,2923.173105239868
3827,2923.898111343384
3828,2924.640117406845
3829,2925.3791234493256
3830,2926.114129781723
3831,2926.8561358451843
3832,2927.591141939163
3833,2928.346148252487
3834,2929.082154273987
3835,2929.8141605854034
3836,2930.5421664714813
3837,2931.254172563553
3838,2931.978178501129
3839,2932.7011845111847
3840,2933.407190322876
3841,2934.12419629097
3842,2934.840202331543
3843,2935.5652084350586
3844,2936.2972145080566
3845,2937.0242204666138
3846,2937.753226518631
3847,2938.471232652664
3848,2939.1902384757996
3849,2939.913244485855
3850,2940.629250526428
3851,2941.3502564430237
3852,2942.062262535095
3853,2942.777268409729
3854,2943.4822742938995
3855,2944.18728017807
3856,2944.8932859897614
3857,2945.610291957855
3858,2946.337298154831
3859,2947.066304206848
3860,2947.7903101444244
3861,2948.51131606102
3862,2949.2413222789764
3863,2949.9683282375336
3864,2950.709334373474
3865,2951.482340812683
3866,2952.237347126007
3867,2952.9733533859253
3868,2953.724359512329
3869,2954.4503655433655
3870,2955.1683716773987
3871,2955.8783774375916
3872,2956.578383207321
3873,2957.274389028549
3874,2957.9513947963715
3875,2958.623400449753
3876,2959.2844059467316
3877,2959.9614114761353
3878,2960.640417098999
3879,2961.338423013687
3880,2962.0314288139343
3881,2962.7254345417023
3882,2963.425440311432
3883,2964.154446363449
3884,2964.868452310562
3885,2965.5784583091736
3886,2966.3064641952515
3887,2967.0274703502655
3888,2967.74547624588
3889,2968.464482307434
3890,2969.1934883594513
3891,2969.9054942131042
3892,2970.622500181198
3893,2971.3335061073303
3894,2972.053512096405
3895,2972.7845182418823
3896,2973.505524158478
3897,2974.2275302410126
3898,2974.9465363025665
3899,2975.6605422496796
3900,2976.36354804039
3901,2977.075553894043
3902,2977.7805597782135
3903,2978.4975657463074
3904,2979.217571735382
3905,2979.934577703476
3906,2980.652583837509
3907,2981.3535895347595
3908,2982.048595428467
3909,2982.7406010627747
3910,2983.4316067695618
3911,2984.1206126213074
3912,2984.825618505478
3913,2985.5336244106293
3914,2986.2526304721832
3915,2986.9536361694336
3916,2987.659641981125
3917,2988.360647916794
3918,2989.069653749466
3919,2989.764659643173
3920,2990.4706654548645
3921,2991.1886715888977
3922,2991.9006774425507
3923,2992.6146833896637
3924,2993.322689294815
3925,2994.032695055008
3926,2994.732701063156
3927,2995.4307067394257
3928,2996.1297125816345
3929,2996.8447184562683
3930,2997.566724538803
3931,2998.3097307682037
3932,2999.063737154007
3933,2999.792743206024
3934,3000.540749311447
3935,3001.2877554893494
3936,3002.017761707306
3937,3002.762767791748
3938,3003.5277740955353
3939,3004.305780649185
3940,3005.058786869049
3941,3005.8077931404114
3942,3006.5447993278503
3943,3007.2748053073883
3944,3007.9938113689423
3945,3008.7328176498413
3946,3009.529824256897
3947,3010.3068306446075
3948,3011.0778369903564
3949,3011.820843219757
3950,3012.5678493976593
3951,3013.2998554706573
3952,3014.027861595154
3953,3014.771867752075
3954,3015.4928739070892
3955,3016.210879802704
3956,3016.926885843277
3957,3017.619891643524
3958,3018.319897413254
3959,3019.0409033298492
3960,3019.777909517288
3961,3020.5049154758453
3962,3021.2369215488434
3963,3021.96492767334
3964,3022.7049338817596
3965,3023.463940143585
3966,3024.2119464874268
3967,3024.971952676773
3968,3025.7189588546753
3969,3026.4599652290344
3970,3027.211971282959
3971,3027.9599776268005
3972,3028.7249839305878
3973,3029.4909904003143
3974,3030.2529966831207
3975,3031.021003007889
3976,3031.796009540558
3977,3032.584016084671
3978,3033.3640224933624
3979,3034.151029109955
3980,3034.906035423279
3981,3035.6800417900085
3982,3036.4370481967926
3983,3037.178054332733
3984,3037.935060739517
3985,3038.701066970825
3986,3039.4570734500885
3987,3040.2380797863007
3988,3041.010086297989
3989,3041.7870926856995
3990,3042.5670993328094
3991,3043.34210562706
3992,3044.1181120872498
3993,3044.8961186408997
3994,3045.6501247882843
3995,3046.400131225586
3996,3047.150137424469
3997,3047.902143716812
3998,3048.6511499881744
3999,3049.40815615654
4000,3050.1711626052856
4001,3050.933168888092
4002,3051.6951751708984
4003,3052.4601817131042
4004,3053.2101879119873
4005,3053.971194267273
4006,3054.7382006645203
4007,3055.492206811905
4008,3056.2172129154205
4009,3056.9902193546295
4010,3057.793226003647
4011,3058.568232536316
4012,3059.2992384433746
4013,3060.011244535446
4014,3060.725250482559
4015,3061.4302563667297
4016,3062.1322622299194
4017,3062.8412680625916
4018,3063.5582740306854
4019,3064.297280073166
4020,3065.036286354065
4021,3065.7792925834656
4022,3066.534298658371
4023,3067.2853050231934
4024,3068.0363113880157
4025,3068.796317577362
4026,3069.5733239650726
4027,3070.365330696106
4028,3071.141337156296
4029,3071.9183435440063
4030,3072.686350107193
4031,3073.4483563899994
4032,3074.206362724304
4033,3074.9883692264557
4034,3075.7783756256104
4035,3076.564382314682
4036,3077.355388879776
4037,3078.128395318985
4038,3078.9024016857147
4039,3079.6674082279205
4040,3080.4344143867493
4041,3081.2034208774567
4042,3081.9614272117615
4043,3082.727433681488
4044,3083.497440099716
4045,3084.258446455002
4046,3085.02645277977
4047,3085.7854590415955
4048,3086.54146528244
4049,3087.299471616745
4050,3088.053478002548
4051,3088.8104841709137
4052,3089.5754907131195
4053,3090.3264968395233
4054,3091.068503141403
4055,3091.8095092773438
4056,3092.5445153713226
4057,3093.2755215168
4058,3094.0135276317596
4059,3094.7515337467194
4060,3095.489539861679
4061,3096.226546049118
4062,3096.97155213356
4063,3097.7355585098267
4064,3098.507565021515
4065,3099.273571252823
4066,3100.0385777950287
4067,3100.790584087372
4068,3101.548590183258
4069,3102.2985966205597
4070,3103.042602777481
4071,3103.795608997345
4072,3104.5396151542664
4073,3105.2896213531494
4074,3106.0456278324127
4075,3106.7996339797974
4076,3107.576640367508
4077,3108.3526468276978
4078,3109.129653453827
4079,3109.896659851074
4080,3110.6646661758423
4081,3111.4516727924347
4082,3112.238679409027
4083,3113.0086858272552
4084,3113.7716920375824
4085,3114.5206983089447
4086,3115.2747044563293
4087,3116.020710706711
4088,3116.7677171230316
4089,3117.519723176956
4090,3118.2717294692993
4091,3119.030735731125
4092,3119.784742116928
4093,3120.559748649597
4094,3121.3657553195953
4095,3122.1547617912292
4096,3122.950768470764
4097,3123.731775045395
4098,3124.5077815055847
4099,3125.287787914276
4100,3126.0487942695618
4101,3126.8018004894257
4102,3127.542806625366
4103,3128.2768127918243
4104,3129.0158190727234
4105,3129.7578251361847
4106,3130.503831386566
4107,3131.251837491989
4108,3132.0058438777924
4109,3132.771850347519
4110,3133.542856693268
4111,3134.3198630809784
4112,3135.0938696861267
4113,3135.8188755512238
4114,3136.518881559372
4115,3137.2018871307373
4116,3137.863892555237
4117,3138.522898197174
4118,3139.1869037151337
4119,3139.858909368515
4120,3140.542914867401
4121,3141.2399208545685
4122,3141.944926738739
4123,3142.661932706833
4124,3143.3999388217926
4125,3144.1549451351166
4126,3144.9519517421722
4127,3145.819958925247
4128,3146.706966161728
4129,3147.6519742012024
4130,3148.5579817295074
4131,3149.410988807678
4132,3150.2899961471558
4133,3151.1590032577515
4134,3151.9920103549957
4135,3152.844017267227
4136,3153.6750242710114
4137,3154.508031129837
4138,3155.3530383110046
4139,3156.1980452537537
4140,3157.0450522899628
4141,3157.8840594291687
4142,3158.710066318512
4143,3159.5410730838776
4144,3160.385080099106
4145,3161.235087156296
4146,3162.0550940036774
4147,3162.9061012268066
4148,3163.7621083259583
4149,3164.61611533165
4150,3165.4731225967407
4151,3166.3261296749115
4152,3167.167136669159
4153,3167.996143579483
4154,3168.8331503868103
4155,3169.6461572647095
4156,3170.4361639022827
4157,3171.211170196533
4158,3172.014177083969
4159,3172.8451838493347
4160,3173.6311905384064
4161,3174.372196674347
4162,3175.0872025489807
4163,3175.7942085266113
4164,3176.4872143268585
4165,3177.1922199726105
4166,3177.907226085663
4167,3178.6252319812775
4168,3179.3792383670807
4169,3180.157244682312
4170,3180.968251466751
4171,3181.802258491516
4172,3182.6592655181885
4173,3183.561273097992
4174,3184.429280281067
4175,3185.298287630081
4176,3186.168294906616
4177,3187.0283019542694
4178,3187.8823091983795
4179,3188.713315963745
4180,3189.54532289505
4181,3190.3553297519684
4182,3191.148336172104
4183,3191.908342599869
4184,3192.695349216461
4185,3193.461355447769
4186,3194.2613623142242
4187,3195.05836892128
4188,3195.8783757686615
4189,3196.7033824920654
4190,3197.5723898410797
4191,3198.4483971595764
4192,3199.3464045524597
4193,3200.2024116516113
4194,3201.073418855667
4195,3201.941426038742
4196,3202.7844331264496
4197,3203.643440246582
4198,3204.472447156906
4199,3205.307454109192
4200,3206.1604611873627
4201,3207.0334684848785
4202,3207.951476097107
4203,3208.8334834575653
4204,3209.727490901947
4205,3210.615498304367
4206,3211.501505613327
4207,3212.4025132656097
4208,3213.272520542145
4209,3214.1405277252197
4210,3214.963534593582
4211,3215.8045415878296
4212,3216.627548456192
4213,3217.457555294037
4214,3218.2935621738434
4215,3219.113569021225
4216,3219.944576025009
4217,3220.7875831127167
4218,3221.6185898780823
4219,3222.4675970077515
4220,3223.2966039180756
4221,3224.175611257553
4222,3225.061618566513
4223,3225.9056255817413
4224,3226.781632900238
4225,3227.6446402072906
4226,3228.5096473693848
4227,3229.384654521942
4228,3230.2336616516113
4229,3231.1006689071655
4230,3231.9556760787964
4231,3232.788682937622
4232,3233.6296899318695
4233,3234.4826970100403
4234,3235.335704088211
4235,3236.2017114162445
4236,3237.0257182121277
4237,3237.876725435257
4238,3238.7277324199677
4239,3239.5617394447327
4240,3240.405746459961
4241,3241.242753267288
4242,3242.09876036644
4243,3242.9417674541473
4244,3243.778774499893
4245,3244.629781484604
4246,3245.4727885723114
4247,3246.3327956199646
4248,3247.1978030204773
4249,3248.022809743881
4250,3248.8528168201447
4251,3249.666823387146
4252,3250.46183013916
4253,3251.2518367767334
4254,3252.0218431949615
4255,3252.760849237442
4256,3253.5598559379578
4257,3254.3928627967834
4258,3255.213869571686
4259,3256.0588767528534
4260,3256.886883497238
4261,3257.692890405655
4262,3258.52489733696
4263,3259.333904027939
4264,3260.1539108753204
4265,3260.981917619705
4266,3261.798924446106
4267,3262.6609315872192
4268,3263.5249388217926
4269,3264.355945825577
4270,3265.235953092575
4271,3266.10396027565
4272,3266.9439673423767
4273,3267.7839744091034
4274,3268.6269812583923
4275,3269.4739882946014
4276,3270.32199549675
4277,3271.141002178192
4278,3271.983009338379
4279,3272.809016227722
4280,3273.623023033142
4281,3274.4820301532745
4282,3275.343037366867
4283,3276.2100443840027
4284,3277.081051826477
4285,3277.9190587997437
4286,3278.7830657958984
4287,3279.625072956085
4288,3280.4300796985626
4289,3281.243086338043
4290,3282.037092924118
4291,3282.838099718094
4292,3283.6791067123413
4293,3284.5421137809753
4294,3285.4121210575104
4295,3286.283128261566
4296,3287.1291353702545
4297,3288.0011427402496
4298,3288.853149652481
4299,3289.6801567077637
4300,3290.5091636180878
4301,3291.315170288086
4302,3292.1281769275665
4303,3292.9851841926575
4304,3293.816190958023
4305,3294.6381978988647
4306,3295.4582047462463
4307,3296.260211467743
4308,3297.074218273163
4309,3297.8792247772217
4310,3298.692231655121
4311,3299.5102384090424
4312,3300.35324549675
4313,3301.184252500534
4314,3302.060259580612
4315,3302.90526676178
4316,3303.7592737674713
4317,3304.597280740738
4318,3305.451287984848
4319,3306.2872948646545
4320,3307.151302099228
4321,3308.0053091049194
4322,3308.846316099167
4323,3309.690323114395
4324,3310.483329772949
4325,3311.256336212158
4326,3312.0063424110413
4327,3312.828349351883
4328,3313.6813564300537
4329,3314.4903631210327
4330,3315.25736951828
4331,3315.9983756542206
4332,3316.7573821544647
4333,3317.51438832283
4334,3318.315395116806
4335,3319.122401714325
4336,3319.91840839386
4337,3320.745415210724
4338,3321.602422475815
4339,3322.4754297733307
4340,3323.412437438965
4341,3324.3144450187683
4342,3325.1894521713257
4343,3326.117460012436
4344,3327.002467393875
4345,3327.86847448349
4346,3328.7324817180634
4347,3329.5644886493683
4348,3330.4264957904816
4349,3331.2985031604767
4350,3332.152510166168
4351,3333.043517589569
4352,3333.944525241852
4353,3334.8235325813293
4354,3335.7065398693085
4355,3336.575546979904
4356,3337.413553953171
4357,3338.2645611763
4358,3339.1205682754517
4359,3339.9705753326416
4360,3340.8225824832916
4361,3341.6785895824432
4362,3342.5565967559814
4363,3343.450604200363
4364,3344.3356115818024
4365,3345.1926188468933
4366,3346.0576260089874
4367,3346.903633117676
4368,3347.7616403102875
4369,3348.6256473064423
4370,3349.4436542987823
4371,3350.277661085129
4372,3351.111668109894
4373,3351.916674852371
4374,3352.7506816387177
4375,3353.5826885700226
4376,3354.4346957206726
4377,3355.295702934265
4378,3356.1757102012634
4379,3357.0477175712585
4380,3357.8987245559692
4381,3358.710731267929
4382,3359.5407383441925
4383,3360.378745317459
4384,3361.192752122879
4385,3362.0417590141296
4386,3362.8787660598755
4387,3363.6857726573944
4388,3364.5367798805237
4389,3365.383786916733
4390,3366.2337939739227
4391,3367.0898010730743
4392,3367.9368081092834
4393,3368.7888152599335
4394,3369.6388223171234
4395,3370.4688291549683
4396,3371.3308365345
4397,3372.2058436870575
4398,3373.0658509731293
4399,3373.929857969284
4400,3374.76886510849
4401,3375.610872030258
4402,3376.4618792533875
4403,3377.2858860492706
4404,3378.1368930339813
4405,3379.009900331497
4406,3379.844907283783
4407,3380.7039144039154
4408,3381.5739216804504
4409,3382.401928663254
4410,3383.2759358882904
4411,3384.164943218231
4412,3385.037950515747
4413,3385.9609582424164
4414,3386.8089652061462
4415,3387.664972305298
4416,3388.518979549408
4417,3389.355986595154
4418,3390.215993642807
4419,3391.047000646591
4420,3391.9060077667236
4421,3392.765014886856
4422,3393.618021965027
4423,3394.522029399872
4424,3395.4030368328094
4425,3396.2650439739227
4426,3397.14205121994
4427,3397.9720582962036
4428,3398.791064977646
4429,3399.583071708679
4430,3400.3530781269073
4431,3401.1150844097137
4432,3401.865090608597
4433,3402.591096639633
4434,3403.308102607727
4435,3404.0701088905334
4436,3404.8371152877808
4437,3405.607121706009
4438,3406.405128479004
4439,3407.2211351394653
4440,3408.027142047882
4441,3408.849148750305
4442,3409.6981558799744
4443,3410.511162519455
4444,3411.3621697425842
4445,3412.2091767787933
4446,3413.026183605194
4447,3413.8871908187866
4448,3414.7381978034973
4449,3415.56320476532
4450,3416.4062116146088
4451,3417.260218858719
4452,3418.107225894928
4453,3419.0172333717346
4454,3419.8692405223846
4455,3420.7022473812103
4456,3421.539254426956
4457,3422.369261264801
4458,3423.21626830101
4459,3424.081275701523
4460,3424.938282728195
4461,3425.8032898902893
4462,3426.6852972507477
4463,3427.6143050193787
4464,3428.5103125572205
4465,3429.3983199596405
4466,3430.2383267879486
4467,3431.112334251404
4468,3431.9913413524628
4469,3432.8483486175537
4470,3433.731355905533
4471,3434.5763630867004
4472,3435.4003698825836
4473,3436.278377056122
4474,3437.1513843536377
4475,3438.0423917770386
4476,3438.9973998069763
4477,3439.924407482147
4478,3440.816414833069
4479,3441.7684228420258
4480,3442.674430370331
4481,3443.562437772751
4482,3444.448445081711
4483,3445.2874522209167
4484,3446.0594584941864
4485,3446.846465110779
4486,3447.7064723968506
4487,3448.5714795589447
4488,3449.387486219406
4489,3450.1644928455353
4490,3450.9114990234375
4491,3451.6825053691864
4492,3452.458511829376
4493,3453.2535185813904
4494,3454.064525127411
4495,3454.885532140732
4496,3455.7035388946533
4497,3456.5065455436707
4498,3457.3415524959564
4499,3458.201559782028
4500,3459.0975670814514
4501,3460.0075747966766
4502,3460.8815820217133
4503,3461.778589487076
4504,3462.665596961975
4505,3463.5426042079926
4506,3464.4276115894318
4507,3465.272618532181
4508,3466.1226255893707
4509,3466.963632583618
4510,3467.7916395664215
4511,3468.6436467170715
4512,3469.4906537532806
4513,3470.3376607894897
4514,3471.1856677532196
4515,3472.0196747779846
4516,3472.8546817302704
4517,3473.708688735962
4518,3474.560695886612
4519,3475.4147028923035
4520,3476.264710187912
4521,3477.1187171936035
4522,3478.002724647522
4523,3478.8667316436768
4524,3479.7417390346527
4525,3480.623746395111
4526,3481.47075343132
4527,3482.321760416031
4528,3483.198767900467
4529,3484.076775074005
4530,3484.947782278061
4531,3485.821789741516
4532,3486.667796611786
4533,3487.53280377388
4534,3488.404811143875
4535,3489.249818086624
4536,3490.127825498581
4537,3490.9808325767517
4538,3491.8338396549225
4539,3492.7068469524384
4540,3493.5748541355133
4541,3494.4468615055084
4542,3495.307868719101
4543,3496.132875442505
4544,3497.0038826465607
4545,3497.85288977623
4546,3498.684896707535
4547,3499.551903963089
4548,3500.383910894394
4549,3501.2609181404114
4550,3502.121925354004
4551,3502.989932537079
4552,3503.854939699173
4553,3504.7029469013214
4554,3505.5759541988373
4555,3506.4759616851807
4556,3507.337968826294
4557,3508.2249760627747
4558,3509.1049835681915
4559,3509.955990552902
4560,3510.830997943878
4561,3511.6860048770905
4562,3512.532011985779
4563,3513.3890192508698
4564,3514.211025953293
4565,3515.040032863617
4566,3515.86603975296
4567,3516.6840465068817
4568,3517.4750530719757
4569,3518.264059782028
4570,3519.0720665454865
4571,3519.8790731430054
4572,3520.684079885483
4573,3521.5010867118835
4574,3522.3200936317444
4575,3523.125100135803
4576,3523.9531071186066
4577,3524.7751140594482
4578,3525.6121208667755
4579,3526.4491279125214
4580,3527.274134874344
4581,3528.1081416606903
4582,3528.950148820877
4583,3529.785155773163
4584,3530.602162361145
4585,3531.4171693325043
4586,3532.24817609787
4587,3533.0931832790375
4588,3533.9371902942657
4589,3534.778197288513
4590,3535.6192042827606
4591,3536.460211277008
4592,3537.274218082428
4593,3538.098224878311
4594,3538.902231693268
4595,3539.706238269806
4596,3540.5282452106476
4597,3541.3322517871857
4598,3542.1522586345673
4599,3542.9502651691437
4600,3543.7952723503113
4601,3544.6112790107727
4602,3545.424285888672
4603,3546.2392926216125
4604,3547.036299228668
4605,3547.837306022644
4606,3548.624312400818
4607,3549.438319206238
4608,3550.2423260211945
4609,3551.0533328056335
4610,3551.88733959198
4611,3552.724346637726
4612,3553.586353778839
4613,3554.444360971451
4614,3555.2663679122925
4615,3556.0853745937347
4616,3556.896381378174
4617,3557.6883878707886
4618,3558.4943947792053
4619,3559.276401281357
4620,3560.080407857895
4621,3560.896414756775
4622,3561.7064213752747
4623,3562.5454285144806
4624,3563.3514351844788
4625,3564.2054421901703
4626,3565.0414493083954
4627,3565.846455812454
4628,3566.6594626903534
4629,3567.472469329834
4630,3568.30947637558
4631,3569.1414833068848
4632,3569.949490070343
4633,3570.7594969272614
4634,3571.556503534317
4635,3572.3795104026794
4636,3573.1855170726776
4637,3573.96852350235
4638,3574.7195298671722
4639,3575.557536840439
4640,3576.33554315567
4641,3577.0815494060516
4642,3577.8195555210114
4643,3578.557561635971
4644,3579.317568063736
4645,3580.0635743141174
4646,3580.8055803775787
4647,3581.5355865955353
4648,3582.2655925750732
4649,3582.985598564148
4650,3583.6926045417786
4651,3584.408610343933
4652,3585.110616207123
4653,3585.8176221847534
4654,3586.5476281642914
4655,3587.293634414673
4656,3588.086641073227
4657,3588.897647857666
4658,3589.7146546840668
4659,3590.5626616477966
4660,3591.439668893814
4661,3592.298676252365
4662,3593.177683353424
4663,3594.073690891266
4664,3594.9286980628967
4665,3595.8027052879333
4666,3596.717712879181
4667,3597.549719810486
4668,3598.3887269496918
4669,3599.207733631134
4670,3600.00874042511
4671,3600.8037469387054
4672,3601.6147537231445
4673,3602.427760362625
4674,3603.262767314911
4675,3604.132774591446
4676,3604.9807817935944
4677,3605.81178855896
4678,3606.62579536438
4679,3607.423802137375
4680,3608.245808839798
4681,3609.081815958023
4682,3609.8948225975037
4683,3610.701829433441
4684,3611.485835790634
4685,3612.258842229843
4686,3613.056849002838
4687,3613.8368554115295
4688,3614.5888617038727
4689,3615.3778681755066
4690,3616.174875020981
4691,3616.9998817443848
4692,3617.8558888435364
4693,3618.6488955020905
4694,3619.451902151108
4695,3620.257908821106
4696,3621.072915792465
4697,3621.8839223384857
4698,3622.7109293937683
4699,3623.5379362106323
4700,3624.3489429950714
4701,3625.206950187683
4702,3626.08295750618
4703,3626.9469645023346
4704,3627.8019716739655
4705,3628.6359786987305
4706,3629.478985786438
4707,3630.2979924678802
4708,3631.1339995861053
4709,3631.96400642395
4710,3632.7700130939484
4711,3633.5660197734833
4712,3634.3700263500214
4713,3635.152032852173
4714,3635.940039396286
4715,3636.7190458774567
4716,3637.489052295685
4717,3638.2900590896606
4718,3639.090065717697
4719,3639.8950724601746
4720,3640.7040791511536
4721,3641.50408577919
4722,3642.31809258461
4723,3643.1350994110107
4724,3643.9271059036255
4725,3644.736112833023
4726,3645.5341193675995
4727,3646.3121259212494
4728,3647.1131324768066
4729,3647.895138978958
4730,3648.6851456165314
4731,3649.4881522655487
4732,3650.283159017563
4733,3651.085165500641
4734,3651.8821721076965
4735,3652.669178724289
4736,3653.4661853313446
4737,3654.250191926956
4738,3655.0431985855103
4739,3655.840205192566
4740,3656.626211643219
4741,3657.414218187332
4742,3658.187224626541
4743,3658.9752311706543
4744,3659.7292375564575
4745,3660.5052440166473
4746,3661.2852504253387
4747,3662.060256958008
4748,3662.8382635116577
4749,3663.613269805908
4750,3664.4062764644623
4751,3665.1812829971313
4752,3665.953289270401
4753,3666.7352957725525
4754,3667.5153024196625
4755,3668.2883088588715
4756,3669.0563151836395
4757,3669.8193216323853
4758,3670.5893280506134
4759,3671.3553342819214
4760,3672.126340866089
4761,3672.911347389221
4762,3673.687353849411
4763,3674.4513602256775
4764,3675.208366394043
4765,3675.93737244606
4766,3676.6503784656525
4767,3677.3693845272064
4768,3678.0913903713226
4769,3678.8363966941833
4770,3679.5844027996063
4771,3680.3334090709686
4772,3681.1014153957367
4773,3681.8674218654633
4774,3682.6494283676147
4775,3683.4384348392487
4776,3684.204441308975
4777,3684.982447862625
4778,3685.7594542503357
4779,3686.5344607830048
4780,3687.322467327118
4781,3688.0974736213684
4782,3688.8974804878235
4783,3689.6814868450165
4784,3690.478493452072
4785,3691.2905004024506
4786,3692.0815069675446
4787,3692.889513731003
4788,3693.677520275116
4789,3694.4695267677307
4790,3695.262533426285
4791,3696.060539960861
4792,3696.854546546936
4793,3697.6445531845093
4794,3698.410559654236
4795,3699.1875660419464
4796,3699.9575724601746
4797,3700.7315788269043
4798,3701.538585662842
4799,3702.3455922603607
4800,3703.132598876953
4801,3703.9146053791046
4802,3704.706612110138
4803,3705.5276188850403
4804,3706.327625513077
4805,3707.154632329941
4806,3707.982639312744
4807,3708.7876460552216
4808,3709.607652902603
4809,3710.422659635544
4810,3711.210666179657
4811,3712.03467297554
4812,3712.8406796455383
4813,3713.680686712265
4814,3714.5266938209534
4815,3715.344700574875
4816,3716.171707391739
4817,3716.963714122772
4818,3717.7277204990387
4819,3718.5067269802094
4820,3719.2947335243225
4821,3720.0687398910522
4822,3720.8337461948395
4823,3721.5957527160645
4824,3722.334758758545
4825,3723.0607647895813
4826,3723.767770767212
4827,3724.4757766723633
4828,3725.1947824954987
4829,3725.9377887248993
4830,3726.6847949028015
4831,3727.4548013210297
4832,3728.2708082199097
4833,3729.071814775467
4834,3729.8958218097687
4835,3730.7108285427094
4836,3731.507835149765
4837,3732.3358421325684
4838,3733.1608488559723
4839,3733.9738557338715
4840,3734.8038625717163
4841,3735.6578698158264
4842,3736.510876893997
4843,3737.353883743286
4844,3738.193890810013
4845,3739.039897918701
4846,3739.877904891968
4847,3740.703911781311
4848,3741.5089185237885
4849,3742.36292552948
4850,3743.2399327754974
4851,3744.0479395389557
4852,3744.8979465961456
4853,3745.748953819275
4854,3746.6199610233307
4855,3747.4779682159424
4856,3748.3539752960205
4857,3749.2339828014374
4858,3750.09298992157
4859,3750.949996948242
4860,3751.8220043182373
4861,3752.6450111865997
4862,3753.4770181179047
4863,3754.3150250911713
4864,3755.1380319595337
4865,3755.9870388507843
4866,3756.8030457496643
4867,3757.6270525455475
4868,3758.4380593299866
4869,3759.240066051483
4870,3760.0790729522705
4871,3760.9080798625946
4872,3761.723086833954
4873,3762.562093734741
4874,3763.3881006240845
4875,3764.2181074619293
4876,3765.0591144561768
4877,3765.8981215953827
4878,3766.7361285686493
4879,3767.54913520813
4880,3768.3511419296265
4881,3769.168148756027
4882,3769.9901554584503
4883,3770.8221623897552
4884,3771.639169216156
4885,3772.4791762828827
4886,3773.3091831207275
4887,3774.13218998909
4888,3774.9761970043182
4889,3775.803204059601
4890,3776.6532111167908
4891,3777.5012180805206
4892,3778.327224969864
4893,3779.159231901169
4894,3779.9772386550903
4895,3780.8002455234528
4896,3781.634252548218
4897,3782.4482593536377
4898,3783.249265909195
4899,3784.061272621155
4900,3784.853279352188
4901,3785.6762862205505
4902,3786.5052931308746
4903,3787.3352999687195
4904,3788.1703069210052
4905,3788.9953138828278
4906,3789.821320772171
4907,3790.6703276634216
4908,3791.496334552765
4909,3792.3333415985107
4910,3793.1603484153748
4911,3793.955355167389
4912,3794.7603616714478
4913,3795.5463683605194
4914,3796.3133747577667
4915,3797.0613808631897
4916,3797.8423874378204
4917,3798.7673950195312
4918,3799.625402212143
4919,3800.3994088172913
4920,3801.178415298462
4921,3801.9884219169617
4922,3802.7494282722473
4923,3803.525434732437
4924,3804.293441057205
4925,3805.0834476947784
4926,3805.900454521179
4927,3806.722461462021
4928,3807.587468624115
4929,3808.4454758167267
4930,3809.3194830417633
4931,3810.1864902973175
4932,3811.0334973335266
4933,3811.8965044021606
4934,3812.7495114803314
4935,3813.613518714905
4936,3814.4845259189606
4937,3815.3365330696106
4938,3816.2045402526855
4939,3817.0595474243164
4940,3817.918554544449
4941,3818.757561683655
4942,3819.601568698883
4943,3820.462575674057
4944,3821.340583086014
4945,3822.185590028763
4946,3823.034597158432
4947,3823.8776042461395
4948,3824.723611354828
4949,3825.573618412018
4950,3826.412625312805
4951,3827.249632358551
4952,3828.1086394786835
4953,3828.9706466197968
4954,3829.8216536045074
4955,3830.681660890579
4956,3831.5276679992676
4957,3832.34667468071
4958,3833.1786816120148
4959,3833.986688375473
4960,3834.797695159912
4961,3835.6137018203735
4962,3836.4277086257935
4963,3837.237715482712
4964,3838.0657222270966
4965,3838.9007291793823
4966,3839.727736234665
4967,3840.5447430610657
4968,3841.3537497520447
4969,3842.158756494522
4970,3842.9777631759644
4971,3843.779769897461
4972,3844.587776660919
4973,3845.3827831745148
4974,3846.1557896137238
4975,3846.9547963142395
4976,3847.7268028259277
4977,3848.5168092250824
4978,3849.3168160915375
4979,3850.1268227100372
4980,3850.9678297042847
4981,3851.7828364372253
4982,3852.5938432216644
4983,3853.4068500995636
4984,3854.207856655121
4985,3855.025863647461
4986,3855.8238701820374
4987,3856.641876935959
4988,3857.4438836574554
4989,3858.238890171051
4990,3859.034896850586
4991,3859.8179035186768
4992,3860.615910053253
4993,3861.3959164619446
4994,3862.163923025131
4995,3862.947929382324
4996,3863.7399361133575
4997,3864.52494263649
4998,3865.3069491386414
4999,3866.104955673218
5000,3866.896962404251
5001,3867.6869690418243
5002,3868.4729754924774
5003,3869.270982027054
5004,3870.062988758087
5005,3870.8489952087402
5006,3871.6600019931793
5007,3872.4550087451935
5008,3873.240015268326
5009,3874.0150215625763
5010,3874.7840280532837
5011,3875.5400342941284
5012,3876.283040523529
5013,3877.1050474643707
5014,3877.922054052353
5015,3878.694060564041
5016,3879.4400668144226
5017,3880.1750729084015
5018,3880.906079053879
5019,3881.653085231781
5020,3882.4020915031433
5021,3883.137097597122
5022,3883.898103952408
5023,3884.6691102981567
5024,3885.4501168727875
5025,3886.2611236572266
5026,3887.0851304531097
5027,3887.9031372070312
5028,3888.7671444416046
5029,3889.647151708603
5030,3890.4951589107513
5031,3891.367166042328
5032,3892.2401733398438
5033,3893.086180448532
5034,3893.9301874637604
5035,3894.7591943740845
5036,3895.5782010555267
5037,3896.3802077770233
5038,3897.2012145519257
5039,3898.008221387863
5040,3898.827228307724
5041,3899.6972353458405
5042,3900.478241920471
5043,3901.359249353409
5044,3902.147255897522
5045,3902.9832627773285
5046,3903.8142697811127
5047,3904.663276910782
5048,3905.485283613205
5049,3906.3072905540466
5050,3907.1522974967957
5051,3907.9873044490814
5052,3908.8383116722107
5053,3909.682318687439
5054,3910.512325525284
5055,3911.376332759857
5056,3912.2103395462036
5057,3913.037346601486
5058,3913.86435341835
5059,3914.6683599948883
5060,3915.471366882324
5061,3916.280373573303
5062,3917.0603799819946
5063,3917.8693866729736
5064,3918.6703934669495
5065,3919.475400209427
5066,3920.294406890869
5067,3921.1144137382507
5068,3921.942420721054
5069,3922.7784276008606
5070,3923.5944344997406
5071,3924.4244413375854
5072,3925.244448184967
5073,3926.048454761505
5074,3926.8814618587494
5075,3927.719468832016
5076,3928.5394756793976
5077,3929.373482465744
5078,3930.204489469528
5079,3931.06249666214
5080,3931.91250371933
5081,3932.7435104846954
5082,3933.586517572403
5083,3934.4095244407654
5084,3935.2335312366486
5085,3936.0625381469727
5086,3936.875545024872
5087,3937.7005517482758
5088,3938.5575590133667
5089,3939.4155662059784
5090,3940.2655732631683
5091,3941.082580089569
5092,3941.904586791992
5093,3942.726593732834
5094,3943.553600549698
5095,3944.369607448578
5096,3945.180614233017
5097,3945.986620903015
5098,3946.8026275634766
5099,3947.587634086609
5100,3948.3766407966614
5101,3949.1626472473145
5102,3949.9456539154053
5103,3950.755660533905
5104,3951.5606672763824
5105,3952.360673904419
5106,3953.1626806259155
5107,3953.942687034607
5108,3954.719693660736
5109,3955.5377004146576
5110,3956.339707136154
5111,3957.149713754654
5112,3957.920720100403
5113,3958.7037267684937
5114,3959.487733364105
5115,3960.253739595413
5116,3961.014745950699
5117,3961.7937524318695
5118,3962.5857589244843
5119,3963.3567655086517
5120,3964.134771823883
5121,3964.9187784194946
5122,3965.720785140991
5123,3966.5257918834686
5124,3967.3607988357544
5125,3968.196805715561
5126,3969.0198125839233
5127,3969.8278193473816
5128,3970.6548261642456
5129,3971.4738330841064
5130,3972.312839984894
5131,3973.135846853256
5132,3973.9568536281586
5133,3974.8068606853485
5134,3975.6458678245544
5135,3976.4698746204376
5136,3977.310881614685
5137,3978.1348884105682
5138,3978.9688954353333
5139,3979.821902513504
5140,3980.637909412384
5141,3981.4639163017273
5142,3982.283923149109
5143,3983.092929840088
5144,3983.9229366779327
5145,3984.7479436397552
5146,3985.5699503421783
5147,3986.404957294464
5148,3987.219964027405
5149,3988.037971019745
5150,3988.8539776802063
5151,3989.6489844322205
5152,3990.4549911022186
5153,3991.2659978866577
5154,3992.0600044727325
5155,3992.86501121521
5156,3993.674017906189
5157,3994.4760246276855
5158,3995.2880313396454
5159,3996.0810379981995
