,ECG_peaks
0,0.0
1,0.7070004940032959
2,1.4080009460449219
3,2.1200013160705566
4,2.8400018215179443
5,3.576002359390259
6,4.321002721786499
7,5.0620033740997314
8,5.81800389289856
9,6.571004152297974
10,7.324004650115967
11,8.05900526046753
12,8.776005744934082
13,9.493006229400635
14,10.201006650924683
15,10.881006956100464
16,11.551007509231567
17,12.219007968902588
18,12.903008222579956
19,13.628008842468262
20,14.34800934791565
21,15.084009647369385
22,15.854010343551636
23,16.634010791778564
24,17.409011125564575
25,18.165011644363403
26,18.87901210784912
27,19.586012601852417
28,20.284013032913208
29,20.98801350593567
30,21.693013906478882
31,22.386014461517334
32,23.07001495361328
33,23.753015279769897
34,24.44601583480835
35,25.177016258239746
36,25.929016828536987
37,26.68101716041565
38,27.40801763534546
39,28.1290180683136
40,28.85701870918274
41,29.57301902770996
42,30.262019395828247
43,30.945019960403442
44,31.64802050590515
45,32.37002086639404
46,33.099021434783936
47,33.8270218372345
48,34.53702235221863
49,35.228022813797
50,35.92302322387695
51,36.61902356147766
52,37.31002402305603
53,37.993024587631226
54,38.66102480888367
55,39.31702542304993
56,39.966025829315186
57,40.61902618408203
58,41.29102659225464
59,42.005027055740356
60,42.72902750968933
61,43.46902799606323
62,44.19602847099304
63,44.919028997421265
64,45.62102937698364
65,46.308029890060425
66,46.97403025627136
67,47.62203073501587
68,48.269031047821045
69,48.931031465530396
70,49.617032051086426
71,50.32903242111206
72,51.042032957077026
73,51.71803331375122
74,52.38003373146057
75,53.043034076690674
76,53.71903467178345
77,54.397035121917725
78,55.07203555107117
79,55.744035959243774
80,56.40703630447388
81,57.05203676223755
82,57.68503713607788
83,58.2980375289917
84,58.904037952423096
85,59.50803828239441
86,60.11103868484497
87,60.71303915977478
88,61.324039459228516
89,61.94003987312317
90,62.56204032897949
91,63.207040786743164
92,63.899041175842285
93,64.59404158592224
94,65.30404210090637
95,66.00404238700867
96,66.68504285812378
97,67.35404348373413
98,68.01504373550415
99,68.69804430007935
100,69.38304471969604
101,70.04604506492615
102,70.69604539871216
103,71.34904599189758
104,71.995046377182
105,72.64304685592651
106,73.30004715919495
107,73.95604753494263
108,74.62204813957214
109,75.27404856681824
110,75.93004894256592
111,76.58804941177368
112,77.25904965400696
113,77.956050157547
114,78.69905066490173
115,79.45405125617981
116,80.16905164718628
117,80.88905215263367
118,81.62105250358582
119,82.41405296325684
120,83.15905356407166
121,83.92805409431458
122,84.68705463409424
123,85.43805503845215
124,86.16205549240112
125,86.8640558719635
126,87.5800564289093
127,88.33805680274963
128,89.14905738830566
129,89.94405794143677
130,90.69805836677551
131,91.46805882453918
132,92.24905943870544
133,93.04605984687805
134,93.84206032752991
135,94.60806083679199
136,95.39706134796143
137,96.18806195259094
138,96.97906231880188
139,97.72906279563904
140,98.47006344795227
141,99.24006390571594
142,100.0230643749237
143,100.80306482315063
144,101.60106539726257
145,102.37606596946716
146,103.1190664768219
147,103.84006690979004
148,104.5590672492981
149,105.28706765174866
150,106.03406834602356
151,106.80806875228882
152,107.61206936836243
153,108.37206983566284
154,109.13107013702393
155,109.92207074165344
156,110.74207139015198
157,111.53007173538208
158,112.27407217025757
159,113.03407263755798
160,113.78107333183289
161,114.52907371520996
162,115.26007413864136
163,115.99707460403442
164,116.74307513237
165,117.50307559967041
166,118.2560760974884
167,119.00107669830322
168,119.7710771560669
169,120.55807757377625
170,121.33307814598083
171,122.07707858085632
172,122.82607913017273
173,123.57007956504822
174,124.31507992744446
175,125.03708052635193
176,125.7610809803009
177,126.48608136177063
178,127.22208189964294
179,127.95608234405518
180,128.68608283996582
181,129.43608331680298
182,130.1830837726593
183,130.91508436203003
184,131.64208483695984
185,132.3700852394104
186,133.10308575630188
187,133.81808614730835
188,134.51908659934998
189,135.21608710289001
190,135.92408752441406
191,136.64308786392212
192,137.33808827400208
193,138.03608894348145
194,138.75308918952942
195,139.5040898323059
196,140.27909016609192
197,141.03309082984924
198,141.78109121322632
199,142.53309178352356
200,143.28309226036072
201,144.03809261322021
202,144.76009321212769
203,145.47309350967407
204,146.1920940876007
205,146.9270944595337
206,147.68309497833252
207,148.4380955696106
208,149.20709609985352
209,150.02209663391113
210,150.86309719085693
211,151.6460976600647
212,152.3970980644226
213,153.14009857177734
214,153.87609910964966
215,154.59409952163696
216,155.31309986114502
217,156.055100440979
218,156.82510089874268
219,157.61110138893127
220,158.37310194969177
221,159.12710237503052
222,159.90910291671753
223,160.6831033229828
224,161.41510391235352
225,162.13110423088074
226,162.84510469436646
227,163.59210538864136
228,164.3461058139801
229,165.0771062374115
230,165.80110669136047
231,166.52910709381104
232,167.2551076412201
233,167.9821081161499
234,168.69610857963562
235,169.40410900115967
236,170.1101095676422
237,170.83711004257202
238,171.57911038398743
239,172.31511092185974
240,173.05711126327515
241,173.82311177253723
242,174.60111236572266
243,175.35611295700073
244,176.10211324691772
245,176.84511375427246
246,177.59211421012878
247,178.34211468696594
248,179.06911516189575
249,179.79211568832397
250,180.52311611175537
251,181.2661166191101
252,182.01811718940735
253,182.76011753082275
254,183.5081181526184
255,184.27111864089966
256,185.05311918258667
257,185.80911946296692
258,186.54911994934082
259,187.28312063217163
260,188.03912091255188
261,188.80012154579163
262,189.55412197113037
263,190.30212235450745
264,191.0301229953766
265,191.78012347221375
266,192.5451238155365
267,193.30812430381775
268,194.0431249141693
269,194.78812527656555
270,195.55412578582764
271,196.3241262435913
272,197.0621268749237
273,197.79612731933594
274,198.53612780570984
275,199.29412817955017
276,200.06012868881226
277,200.81112933158875
278,201.55112957954407
279,202.29313015937805
280,203.05113077163696
281,203.81713104248047
282,204.56413173675537
283,205.30713200569153
284,206.05613255500793
285,206.80713295936584
286,207.55013346672058
287,208.25913405418396
288,208.95413446426392
289,209.67313480377197
290,210.42613530158997
291,211.2001359462738
292,211.9531364440918
293,212.70113682746887
294,213.47813725471497
295,214.2941379547119
296,215.06713843345642
297,215.82513880729675
298,216.57813930511475
299,217.32713985443115
300,218.05414032936096
301,218.77014088630676
302,219.48014116287231
303,220.20114159584045
304,220.93414211273193
305,221.6691427230835
306,222.41814303398132
307,223.17614364624023
308,223.94014406204224
309,224.67614459991455
310,225.4061450958252
311,226.133145570755
312,226.88514590263367
313,227.64914655685425
314,228.3771469593048
315,229.1101474761963
316,229.87114787101746
317,230.6431484222412
318,231.3761489391327
319,232.09814929962158
320,232.83514976501465
321,233.5851502418518
322,234.34115076065063
323,235.08415126800537
324,235.81315183639526
325,236.56515216827393
326,237.34315276145935
327,238.13815331459045
328,238.89515376091003
329,239.65115427970886
330,240.43315482139587
331,241.2171552181244
332,241.98015570640564
333,242.7191562652588
334,243.43015670776367
335,244.15415716171265
336,244.9261577129364
337,245.70715808868408
338,246.4631586074829
339,247.22115898132324
340,247.9891595840454
341,248.7661600112915
342,249.52116060256958
343,250.25216102600098
344,250.9771614074707
345,251.69116187095642
346,252.42116236686707
347,253.1551628112793
348,253.90116333961487
349,254.68916392326355
350,255.52816438674927
351,256.3501648902893
352,257.138165473938
353,257.91416597366333
354,258.695166349411
355,259.4501669406891
356,260.179167509079
357,260.89616775512695
358,261.62116837501526
359,262.3571689128876
360,263.099169254303
361,263.8391697406769
362,264.58717036247253
363,265.34517073631287
364,266.1301712989807
365,266.88617181777954
366,267.6341722011566
367,268.3821725845337
368,269.1311731338501
369,269.8551735877991
370,270.56617403030396
371,271.26917457580566
372,271.9531750679016
373,272.62617540359497
374,273.2891757488251
375,273.9681763648987
376,274.68117666244507
377,275.4261772632599
378,276.14517760276794
379,276.8341782093048
380,277.5361785888672
381,278.27517914772034
382,279.0011794567108
383,279.7031800746918
384,280.43818044662476
385,281.2061810493469
386,281.97918152809143
387,282.74318194389343
388,283.50718235969543
389,284.2881829738617
390,285.0691833496094
391,285.8491840362549
392,286.5821843147278
393,287.32418489456177
394,288.098185300827
395,288.9231858253479
396,289.7441864013672
397,290.47918701171875
398,291.1911873817444
399,291.87718772888184
400,292.5351881980896
401,293.18418860435486
402,293.8221890926361
403,294.4601893424988
404,295.09218978881836
405,295.71619033813477
406,296.3381905555725
407,296.9591910839081
408,297.57119154930115
409,298.1761918067932
410,298.77719235420227
411,299.36719250679016
412,299.95819306373596
413,300.5471932888031
414,301.13019371032715
415,301.70319414138794
416,302.2771944999695
417,302.8501949310303
418,303.4081952571869
419,303.96519565582275
420,304.5151958465576
421,305.0641963481903
422,305.60719656944275
423,306.1571969985962
424,306.70919728279114
425,307.2591977119446
426,307.8111979961395
427,308.3661983013153
428,308.92519879341125
429,309.4841990470886
430,310.0451993942261
431,310.60719990730286
432,311.1702001094818
433,311.73320055007935
434,312.2922010421753
435,312.8522012233734
436,313.40420174598694
437,313.9562020301819
438,314.51320242881775
439,315.07120275497437
440,315.62820315361023
441,316.18420338630676
442,316.74620389938354
443,317.307204246521
444,317.8732044696808
445,318.4492049217224
446,319.02320528030396
447,319.59620571136475
448,320.1722059249878
449,320.7562062740326
450,321.33720684051514
451,321.9142072200775
452,322.4932074546814
453,323.07220792770386
454,323.6542081832886
455,324.2382085323334
456,324.82020902633667
457,325.39920926094055
458,325.9732096195221
459,326.54121017456055
460,327.1042103767395
461,327.6622107028961
462,328.2222111225128
463,328.7882115840912
464,329.36421179771423
465,329.95321226119995
466,330.5512127876282
467,331.146213054657
468,331.7502133846283
469,332.36621379852295
470,332.99421429634094
471,333.61121463775635
472,334.22421503067017
473,334.837215423584
474,335.4482157230377
475,336.0542161464691
476,336.6602165699005
477,337.26921701431274
478,337.8742172718048
479,338.47921776771545
480,339.08521819114685
481,339.6972186565399
482,340.31921887397766
483,340.9352192878723
484,341.5582196712494
485,342.19222021102905
486,342.8412206172943
487,343.4712209701538
488,344.10022139549255
489,344.7372217178345
490,345.37422227859497
491,345.99922251701355
492,346.6172230243683
493,347.2362234592438
494,347.86822390556335
495,348.4992241859436
496,349.1272246837616
497,349.7642250061035
498,350.41922545433044
499,351.07822585105896
500,351.72622632980347
501,352.38222670555115
502,353.0512270927429
503,353.7272276878357
504,354.3842279911041
505,355.02122831344604
506,355.65822887420654
507,356.31222915649414
508,356.9572296142578
509,357.63023018836975
510,358.3272304534912
511,359.0622310638428
512,359.8162314891815
513,360.58523201942444
514,361.35623240470886
515,362.1412329673767
516,362.9292335510254
517,363.72123408317566
518,364.5502345561981
519,365.40923500061035
520,366.25723576545715
521,367.11723613739014
522,368.01323676109314
523,368.8902373313904
524,369.6852378845215
525,370.46423840522766
526,371.28323888778687
527,372.17023944854736
528,373.17124009132385
529,374.1932406425476
530,375.1422414779663
531,376.0402419567108
532,376.9242424964905
533,377.79724311828613
534,378.62524366378784
535,379.4302442073822
536,380.21224451065063
537,381.04024505615234
538,381.91224575042725
539,382.84524631500244
540,383.8022470474243
541,384.7132475376129
542,385.6192481517792
543,386.5262486934662
544,387.4132492542267
545,388.2892498970032
546,389.18425035476685
547,390.02925086021423
548,390.8822515010834
549,391.7722520828247
550,392.6872527599335
551,393.57425332069397
552,394.40325379371643
553,395.1992542743683
554,396.0222547054291
555,396.87325525283813
556,397.7552559375763
557,398.6442565917969
558,399.50025701522827
559,400.2762575149536
560,401.06725811958313
561,401.892258644104
562,402.770259141922
563,403.6732597351074
564,404.5812602043152
565,405.4822609424591
566,406.3492615222931
567,407.1752619743347
568,407.95326256752014
569,408.7472629547119
570,409.5772635936737
571,410.4882640838623
572,411.412264585495
573,412.3522653579712
574,413.28726601600647
575,414.1832664012909
576,415.0422670841217
577,415.8102674484253
578,416.5512681007385
579,417.30526852607727
580,418.0902690887451
581,418.915269613266
582,419.7822701931
583,420.66627073287964
584,421.5322711467743
585,422.3652718067169
586,423.14527225494385
587,423.9562728404999
588,424.75927329063416
589,425.5772738456726
590,426.4092743396759
591,427.24027490615845
592,428.00227546691895
593,428.7632758617401
594,429.5682764053345
595,430.3852767944336
596,431.22527742385864
597,432.0522780418396
598,432.84127855300903
599,433.64727902412415
600,434.4852795600891
601,435.32528018951416
602,436.1662805080414
603,436.9972810745239
604,437.75728154182434
605,438.5302822589874
606,439.3072826862335
607,440.11828327178955
608,441.0062837600708
609,441.9092843532562
610,442.72228479385376
611,443.5152852535248
612,444.31828594207764
613,445.1472864151001
614,445.99128699302673
615,446.80228757858276
616,447.62128806114197
617,448.4562885761261
618,449.3172891139984
619,450.2042896747589
620,451.09229016304016
621,451.962290763855
622,452.75929141044617
623,453.5392918586731
624,454.3292922973633
625,455.1442928314209
626,455.9832932949066
627,456.82929396629333
628,457.6932945251465
629,458.5562949180603
630,459.3932955265045
631,460.1742961406708
632,460.96429657936096
633,461.74129700660706
634,462.4892976284027
635,463.2272980213165
636,463.97029852867126
637,464.7172989845276
638,465.43229937553406
639,466.1532998085022
640,466.9133005142212
641,467.6473009586334
642,468.4033012390137
643,469.1903018951416
644,470.00830245018005
645,470.8653030395508
646,471.7193036079407
647,472.5413041114807
648,473.3513045310974
649,474.1503050327301
650,474.91830563545227
651,475.6603059768677
652,476.4223065376282
653,477.263307094574
654,478.2033076286316
655,479.1083083152771
656,479.9223086833954
657,480.755309343338
658,481.5963099002838
659,482.4583103656769
660,483.2973108291626
661,484.0853114128113
662,484.89731192588806
663,485.76931262016296
664,486.65531301498413
665,487.4893136024475
666,488.29831409454346
667,489.1203145980835
668,489.9623153209686
669,490.82731580734253
670,491.68431639671326
671,492.5003168582916
672,493.3173174858093
673,494.1373178958893
674,494.9683184623718
675,495.79231905937195
676,496.5903193950653
677,497.4133200645447
678,498.28832054138184
679,499.19332122802734
680,500.0393216609955
681,500.8693222999573
682,501.72332286834717
683,502.5843234062195
684,503.44632387161255
685,504.2593243122101
686,505.0763249397278
687,505.94332551956177
688,506.83232617378235
689,507.68432664871216
690,508.49032711982727
691,509.3173277378082
692,510.1643283367157
693,511.0003287792206
694,511.8043293952942
695,512.6263298988342
696,513.4693303108215
697,514.3233308792114
698,515.1753313541412
699,515.9953320026398
700,516.8633325099945
701,517.7813332080841
702,518.6683337688446
703,519.4763340950012
704,520.2903347015381
705,521.1133353710175
706,521.9563357830048
707,522.7733364105225
708,523.597336769104
709,524.4623374938965
710,525.3423380851746
711,526.1883385181427
712,527.009339094162
713,527.8503396511078
714,528.7123401165009
715,529.5783407688141
716,530.3743412494659
717,531.1733417510986
718,532.0143423080444
719,532.914342880249
720,533.7103433609009
721,534.5003437995911
722,535.3303444385529
723,536.2313449382782
724,537.1633455753326
725,538.0993461608887
726,538.9213466644287
727,539.7383472919464
728,540.5603477954865
729,541.3973484039307
730,542.2153489589691
731,543.0263493061066
732,543.8743498325348
733,544.84335064888
734,545.7523510456085
735,546.5803515911102
736,547.4613521099091
737,548.3763527870178
738,549.2733533382416
739,550.118353843689
740,550.9713544845581
741,551.8213551044464
742,552.7093555927277
743,553.5513560771942
744,554.3493566513062
745,555.1693570613861
746,556.0323576927185
747,556.8843581676483
748,557.6783587932587
749,558.4493591785431
750,559.2513597011566
751,560.1333603858948
752,561.0463609695435
753,561.9393615722656
754,562.7753620147705
755,563.6383626461029
756,564.5223631858826
757,565.3663637638092
758,566.1863641738892
759,567.0373647212982
760,567.9483654499054
761,568.8383660316467
762,569.659366607666
763,570.5473670959473
764,571.5163676738739
765,572.4623682498932
766,573.3203687667847
767,574.1853694915771
768,575.1083700656891
769,576.0533707141876
770,576.9393711090088
771,577.8243718147278
772,578.7723722457886
773,579.7343730926514
774,580.6263735294342
775,581.4463741779327
776,582.2883746623993
777,583.167375087738
778,584.097375869751
779,584.9853763580322
780,585.7743768692017
781,586.5463774204254
782,587.3423779010773
783,588.3063786029816
784,589.276379108429
785,590.2563798427582
786,591.2353804111481
787,592.1113810539246
788,593.0183815956116
789,593.9683821201324
790,594.9573826789856
791,595.8323833942413
792,596.6923837661743
793,597.56738448143
794,598.4773850440979
795,599.3453855514526
796,600.2393860816956
797,601.2133867740631
798,602.2253873348236
799,603.2433881759644
800,604.1373887062073
801,605.0473892688751
802,606.0203897953033
803,606.978390455246
804,607.8733911514282
805,608.6973915100098
806,609.5733921527863
807,610.4253926277161
808,611.2293932437897
809,612.0583937168121
810,612.8813943862915
811,613.6493947505951
812,614.4393951892853
813,615.2223958969116
814,616.0333962440491
815,616.9113969802856
816,617.8343975543976
817,618.7413980960846
818,619.5663986206055
819,620.3913991451263
820,621.2693996429443
821,622.1894001960754
822,623.1304008960724
823,623.9574015140533
824,624.7994019985199
825,625.6864025592804
826,626.7304031848907
827,627.7684037685394
828,628.6784045696259
829,629.667405128479
830,630.7484056949615
831,631.778406381607
832,632.7054071426392
833,633.5374076366425
834,634.3914082050323
835,635.3244087696075
836,636.3744094371796
837,637.4124100208282
838,638.2944107055664
839,639.1954112052917
840,640.1514117717743
841,641.1424124240875
842,642.1254131793976
843,642.9804136753082
844,643.8364140987396
845,644.7514147758484
846,645.7034153938293
847,646.6544160842896
848,647.5144166946411
849,648.3604171276093
850,649.2674176692963
851,650.211418390274
852,651.1974189281464
853,652.0544195175171
854,652.879420042038
855,653.7534205913544
856,654.666421175003
857,655.5944218635559
858,656.5164222717285
859,657.3554229736328
860,658.1824233531952
861,659.0624239444733
862,660.0314245223999
863,661.0244252681732
864,661.9514257907867
865,662.78342628479
866,663.6014268398285
867,664.4544274806976
868,665.4284281730652
869,666.4384286403656
870,667.3174293041229
871,668.1704299449921
872,669.0514304637909
873,669.9744310379028
874,670.8704316616058
875,671.6854321956635
876,672.4854326248169
877,673.3704333305359
878,674.3634338378906
879,675.2954344749451
880,676.1664350032806
881,677.0844357013702
882,678.0084362030029
883,678.8334367275238
884,679.6304371356964
885,680.4754378795624
886,681.3834383487701
887,682.2804388999939
888,683.1034395694733
889,683.9614400863647
890,684.8864405155182
891,685.8214411735535
892,686.6514418125153
893,687.4524421691895
894,688.3114428520203
895,689.1924433708191
896,690.0154438018799
897,690.8154444694519
898,691.6674449443817
899,692.5524456501007
900,693.4634461402893
901,694.2904467582703
902,695.1074471473694
903,695.9684476852417
904,696.8824484348297
905,697.7564489841461
906,698.5554494857788
907,699.3684499263763
908,700.2134504318237
909,701.0994510650635
910,701.9484515190125
911,702.7514522075653
912,703.5474526882172
913,704.4024531841278
914,705.306453704834
915,706.2114543914795
916,707.0394549369812
917,707.8344554901123
918,708.6574559211731
919,709.493456363678
920,710.331456899643
921,711.1324574947357
922,711.9524581432343
923,712.8134586811066
924,713.6514592170715
925,714.4544596672058
926,715.206460237503
927,715.9444606304169
928,716.6874611377716
929,717.4134614467621
930,718.1234619617462
931,718.8454625606537
932,719.5904629230499
933,720.41446352005
934,721.2834639549255
935,722.1544644832611
936,722.9454650878906
937,723.7544655799866
938,724.6204662322998
939,725.5144667625427
940,726.335467338562
941,727.1484677791595
942,728.0314683914185
943,728.9214689731598
944,729.8494696617126
945,730.6834700107574
946,731.5104706287384
947,732.4474711418152
948,733.4374718666077
949,734.4034724235535
950,735.2434730529785
951,736.1514735221863
952,737.0964741706848
953,738.1024749279022
954,738.9694755077362
955,739.8204760551453
956,740.7204766273499
957,741.63547706604
958,742.4674775600433
959,743.2694780826569
960,744.1614787578583
961,745.1504793167114
962,746.1744799613953
963,747.0554807186127
964,747.9804811477661
965,748.9614818096161
966,749.9144823551178
967,750.7564830780029
968,751.6394834518433
969,752.5464842319489
970,753.4544847011566
971,754.2754852771759
972,755.0804858207703
973,755.9454863071442
974,756.8874869346619
975,757.8274874687195
976,758.6624879837036
977,759.5264885425568
978,760.4804892539978
979,761.4474899768829
980,762.2954905033112
981,763.1104910373688
982,763.9894914627075
983,764.9084920883179
984,765.8304927349091
985,766.6764931678772
986,767.4914937019348
987,768.3964943885803
988,769.3434948921204
989,770.2994954586029
990,771.150496006012
991,771.9844965934753
992,772.8784971237183
993,773.809497833252
994,774.7134983539581
995,775.5414988994598
996,776.3854994773865
997,777.2764999866486
998,778.1995005607605
999,779.1845011711121
1000,780.038501739502
1001,780.8715023994446
1002,781.7315030097961
1003,782.5845034122467
1004,783.4295039176941
1005,784.2005045413971
1006,784.9505050182343
1007,785.7195055484772
1008,786.6055059432983
1009,787.5395066738129
1010,788.4635071754456
1011,789.2875077724457
1012,790.103508234024
1013,790.9745087623596
1014,791.8545093536377
1015,792.7105100154877
1016,793.5055105686188
1017,794.306510925293
1018,795.2095115184784
1019,796.19451212883
1020,797.1645128726959
1021,798.0135133266449
1022,798.8245139122009
1023,799.7075145244598
1024,800.5795149803162
1025,801.4655156135559
1026,802.2775161266327
1027,803.0615165233612
1028,803.8765170574188
1029,804.7595176696777
1030,805.705518245697
1031,806.5845189094543
1032,807.3915193080902
1033,808.2255198955536
1034,809.1265206336975
1035,810.053521156311
1036,810.9885218143463
1037,811.809522151947
1038,812.607522726059
1039,813.4655232429504
1040,814.3695240020752
1041,815.36452460289
1042,816.2335250377655
1043,817.0745255947113
1044,818.0025262832642
1045,818.9545269012451
1046,819.9085273742676
1047,820.7795281410217
1048,821.5905284881592
1049,822.4105291366577
1050,823.2995295524597
1051,824.205530166626
1052,825.0985307693481
1053,825.9215314388275
1054,826.7315318584442
1055,827.6085324287415
1056,828.5165328979492
1057,829.4555335044861
1058,830.2815341949463
1059,831.0815346240997
1060,831.9395351409912
1061,832.9135358333588
1062,833.9125363826752
1063,834.8075370788574
1064,835.6655375957489
1065,836.6635382175446
1066,837.6685388088226
1067,838.6405396461487
1068,839.483540058136
1069,840.3015406131744
1070,841.1705410480499
1071,842.1055417060852
1072,843.078542470932
1073,843.9515428543091
1074,844.7775435447693
1075,845.6695439815521
1076,846.5455446243286
1077,847.4765450954437
1078,848.3255457878113
1079,849.1315462589264
1080,849.9825468063354
1081,850.9205474853516
1082,851.8815479278564
1083,852.7535486221313
1084,853.5625491142273
1085,854.390549659729
1086,855.2795503139496
1087,856.2395508289337
1088,857.1375515460968
1089,857.9535520076752
1090,858.7705523967743
1091,859.661553144455
1092,860.6035537719727
1093,861.4845542907715
1094,862.2905547618866
1095,863.1125552654266
1096,863.9665558338165
1097,864.8795564174652
1098,865.8425569534302
1099,866.6945576667786
1100,867.5155580043793
1101,868.4145586490631
1102,869.3435592651367
1103,870.2885599136353
1104,871.1495604515076
1105,871.9605610370636
1106,872.8085615634918
1107,873.6935620307922
1108,874.6205627918243
1109,875.4685633182526
1110,876.2635636329651
1111,877.0725643634796
1112,877.9415647983551
1113,878.8565654754639
1114,879.7655658721924
1115,880.5915665626526
1116,881.391566991806
1117,882.2195675373077
1118,883.1005680561066
1119,884.0365686416626
1120,884.939569234848
1121,885.7855699062347
1122,886.6455705165863
1123,887.5735709667206
1124,888.52357172966
1125,889.4335722923279
1126,890.2405726909637
1127,891.0735733509064
1128,891.9365737438202
1129,892.8145744800568
1130,893.6345748901367
1131,894.4425754547119
1132,895.3125760555267
1133,896.2305765151978
1134,897.1805772781372
1135,898.0285778045654
1136,898.9185783863068
1137,899.8135788440704
1138,900.7105793952942
1139,901.5445799827576
1140,902.333580493927
1141,903.1305809020996
1142,903.9155814647675
1143,904.6745820045471
1144,905.4195826053619
1145,906.1845829486847
1146,906.9755835533142
1147,907.8605840206146
1148,908.8495845794678
1149,909.7615852355957
1150,910.5845859050751
1151,911.4135863780975
1152,912.2805869579315
1153,913.1805875301361
1154,914.0195879936218
1155,914.8255884647369
1156,915.6915891170502
1157,916.5885896682739
1158,917.5075902938843
1159,918.3395907878876
1160,919.1335914134979
1161,919.9465918540955
1162,920.7605924606323
1163,921.6425929069519
1164,922.4905934333801
1165,923.3385939598083
1166,924.2595946788788
1167,925.2105951309204
1168,926.1475958824158
1169,926.9815964698792
1170,927.8005969524384
1171,928.6475973129272
1172,929.4845979213715
1173,930.3095984458923
1174,931.164598941803
1175,932.020599603653
1176,932.882600069046
1177,933.7546007633209
1178,934.6216013431549
1179,935.4906017780304
1180,936.3046023845673
1181,937.1136028766632
1182,937.9456033706665
1183,938.7916040420532
1184,939.6526045799255
1185,940.470605134964
1186,941.332605600357
1187,942.199606180191
1188,943.0836067199707
1189,943.9906072616577
1190,944.8436079025269
1191,945.7396085262299
1192,946.6956090927124
1193,947.66960978508
1194,948.6126103401184
1195,949.5426108837128
1196,950.3856112957001
1197,951.1946120262146
1198,952.0146124362946
1199,952.8656129837036
1200,953.7236135005951
1201,954.5636141300201
1202,955.3516147136688
1203,956.181615114212
1204,957.0156157016754
1205,957.8916163444519
1206,958.7326169013977
1207,959.5556173324585
1208,960.4156179428101
1209,961.2446184158325
1210,962.0486190319061
1211,962.8246195316315
1212,963.5856199264526
1213,964.332620382309
1214,965.0596208572388
1215,965.7686212062836
1216,966.5036218166351
1217,967.2896223068237
1218,968.1126227378845
1219,968.9716234207153
1220,969.8516240119934
1221,970.7106244564056
1222,971.5466251373291
1223,972.3596255779266
1224,973.1106259822845
1225,973.8206264972687
1226,974.5136270523071
1227,975.2206273078918
1228,976.2256281375885
1229,977.2576286792755
1230,978.2276294231415
1231,979.1916298866272
1232,980.1616306304932
1233,981.09863114357
1234,982.0596318244934
1235,983.02663230896
1236,983.9586329460144
1237,984.7726335525513
1238,985.5996341705322
1239,986.4066345691681
1240,987.2256350517273
1241,988.0276355743408
1242,988.8606362342834
1243,989.7256367206573
1244,990.6286373138428
1245,991.5306379795074
1246,992.3696384429932
1247,993.2066390514374
1248,994.072639465332
1249,994.9706401824951
1250,995.8876407146454
1251,996.7946412563324
1252,997.6786417961121
1253,998.5366423130035
1254,999.3416428565979
1255,1000.0936434268951
1256,1000.878643989563
1257,1001.6876444816589
1258,1002.6006450653076
1259,1003.4806456565857
1260,1004.3386461734772
1261,1005.2146465778351
1262,1006.1016471385956
1263,1006.9846477508545
1264,1007.8326482772827
1265,1008.6336488723755
1266,1009.4666495323181
1267,1010.2996499538422
1268,1011.1676504611969
1269,1012.0356509685516
1270,1012.903651714325
1271,1013.7616522312164
1272,1014.5496525764465
1273,1015.3106532096863
1274,1016.0926537513733
1275,1016.9356541633606
1276,1017.856654882431
1277,1018.8106553554535
1278,1019.7636561393738
1279,1020.6606566905975
1280,1021.5376572608948
1281,1022.3546576499939
1282,1023.1466581821442
1283,1023.971658706665
1284,1024.827659368515
1285,1025.7266597747803
1286,1026.5776603221893
1287,1027.4156608581543
1288,1028.2856614589691
1289,1029.1746621131897
1290,1030.0766627788544
1291,1030.918663263321
1292,1031.7736637592316
1293,1032.6556644439697
1294,1033.543664932251
1295,1034.4206655025482
1296,1035.2606658935547
1297,1036.086666584015
1298,1036.9336671829224
1299,1037.7686676979065
1300,1038.5766682624817
1301,1039.345668554306
1302,1040.159669160843
1303,1041.021669626236
1304,1041.9476702213287
1305,1042.8396708965302
1306,1043.7146713733673
1307,1044.611671924591
1308,1045.5146725177765
1309,1046.3256731033325
1310,1047.1366736888885
1311,1047.967674255371
1312,1048.8576748371124
1313,1049.7536752223969
1314,1050.6106758117676
1315,1051.4776763916016
1316,1052.3556771278381
1317,1053.247677564621
1318,1054.0556781291962
1319,1054.8636786937714
1320,1055.6856791973114
1321,1056.5396797657013
1322,1057.394680261612
1323,1058.1956808567047
1324,1059.0356812477112
1325,1059.8996818065643
1326,1060.8236825466156
1327,1061.737683057785
1328,1062.588683605194
1329,1063.373684167862
1330,1064.1756846904755
1331,1064.9966850280762
1332,1065.8706858158112
1333,1066.7186863422394
1334,1067.5876867771149
1335,1068.4936873912811
1336,1069.456687927246
1337,1070.3566884994507
1338,1071.1806890964508
1339,1072.00168967247
1340,1072.8696901798248
1341,1073.80469083786
1342,1074.7556915283203
1343,1075.6396920681
1344,1076.5356924533844
1345,1077.44269323349
1346,1078.3296937942505
1347,1079.1676943302155
1348,1080.0376949310303
1349,1080.9286954402924
1350,1081.8936960697174
1351,1082.8016965389252
1352,1083.6296970844269
1353,1084.482697725296
1354,1085.3826982975006
1355,1086.2896988391876
1356,1087.1316993236542
1357,1087.9506998062134
1358,1088.8017003536224
1359,1089.7277009487152
1360,1090.6217017173767
1361,1091.4727022647858
1362,1092.3197026252747
1363,1093.182703256607
1364,1094.0837037563324
1365,1094.9317042827606
1366,1095.7397048473358
1367,1096.5157053470612
1368,1097.2777059078217
1369,1098.040706396103
1370,1098.7817068099976
1371,1099.5067074298859
1372,1100.2247078418732
1373,1100.9347083568573
1374,1101.6267087459564
1375,1102.370709180832
1376,1103.136709690094
1377,1103.9087102413177
1378,1104.716710805893
1379,1105.5247111320496
1380,1106.3147118091583
1381,1107.0587122440338
1382,1107.8167126178741
1383,1108.5927131175995
1384,1109.4137136936188
1385,1110.2047142982483
1386,1110.9687147140503
1387,1111.765715122223
1388,1112.594715833664
1389,1113.4717164039612
1390,1114.307716846466
1391,1115.1097173690796
1392,1115.9767179489136
1393,1116.8227183818817
1394,1117.6287190914154
1395,1118.4287195205688
1396,1119.18971991539
1397,1119.9177205562592
1398,1120.6277208328247
1399,1121.336721420288
1400,1122.020721912384
1401,1122.688722372055
1402,1123.3637228012085
1403,1124.1467232704163
1404,1125.0797238349915
1405,1126.046724319458
1406,1127.0087249279022
1407,1127.9337255954742
1408,1128.7867262363434
1409,1129.6007266044617
1410,1130.3537271022797
1411,1131.0807275772095
1412,1131.8497281074524
1413,1132.608728647232
1414,1133.4547290802002
1415,1134.3347296714783
1416,1135.2617304325104
1417,1136.199730873108
1418,1137.1277315616608
1419,1138.0347321033478
1420,1138.913732767105
1421,1139.709733247757
1422,1140.497733592987
1423,1141.2737340927124
1424,1142.1207346916199
1425,1143.0437352657318
1426,1143.8667359352112
1427,1144.7537364959717
1428,1145.6377370357513
1429,1146.5167376995087
1430,1147.4027380943298
1431,1148.215738773346
1432,1149.0527391433716
1433,1149.8967397212982
1434,1150.7637403011322
1435,1151.6537408828735
1436,1152.4767413139343
1437,1153.3177418708801
1438,1154.1637425422668
1439,1155.038743019104
1440,1155.8957436084747
1441,1156.689744234085
1442,1157.509744644165
1443,1158.318745136261
1444,1159.140745639801
1445,1159.996746301651
1446,1160.8737468719482
1447,1161.7207474708557
1448,1162.5157477855682
1449,1163.2537484169006
1450,1163.9817488193512
1451,1164.6967492103577
1452,1165.43274974823
1453,1166.1847503185272
1454,1166.906750679016
1455,1167.6007511615753
1456,1168.3197515010834
1457,1169.020751953125
1458,1169.7037525177002
1459,1170.3957529067993
1460,1171.082753419876
1461,1171.7867538928986
1462,1172.4807543754578
1463,1173.1657547950745
1464,1173.8637552261353
1465,1174.5797555446625
1466,1175.3107562065125
1467,1176.0157566070557
1468,1176.7207570075989
1469,1177.4237575531006
1470,1178.1357579231262
1471,1178.8237583637238
1472,1179.5057587623596
1473,1180.194759130478
1474,1180.9067597389221
1475,1181.6027600765228
1476,1182.2747604846954
1477,1182.9327609539032
1478,1183.5657613277435
1479,1184.186761856079
1480,1184.7977621555328
1481,1185.4057626724243
1482,1186.0097630023956
1483,1186.6127634048462
1484,1187.214763879776
1485,1187.8097641468048
1486,1188.3987646102905
1487,1188.975764989853
1488,1189.5557651519775
1489,1190.1267657279968
1490,1190.6967658996582
1491,1191.2667663097382
1492,1191.834766626358
1493,1192.4117670059204
1494,1192.987767457962
1495,1193.5607678890228
1496,1194.1377682685852
1497,1194.7157685756683
1498,1195.2927689552307
1499,1195.8667693138123
1500,1196.4357697963715
1501,1196.9977700710297
1502,1197.5517704486847
1503,1198.097770690918
1504,1198.640771150589
1505,1199.1857714653015
1506,1199.7287719249725
1507,1200.2707722187042
1508,1200.807772397995
1509,1201.3407728672028
1510,1201.8697731494904
1511,1202.3967735767365
1512,1202.9217739105225
1513,1203.4477741718292
1514,1203.9747745990753
1515,1204.5027749538422
1516,1205.0387752056122
1517,1205.57177567482
1518,1206.1117758750916
1519,1206.6447763442993
1520,1207.168776512146
1521,1207.6917769908905
1522,1208.2117772102356
1523,1208.73077750206
1524,1209.2547779083252
1525,1209.7867782115936
1526,1210.3227787017822
1527,1210.8587789535522
1528,1211.3927793502808
1529,1211.9307796955109
1530,1212.4627799987793
1531,1212.9927804470062
1532,1213.5227806568146
1533,1214.0527811050415
1534,1214.581781387329
1535,1215.1057817935944
1536,1215.6207821369171
1537,1216.1317822933197
1538,1216.6407825946808
1539,1217.1467831134796
1540,1217.6467833518982
1541,1218.1497836112976
1542,1218.6517839431763
1543,1219.153784275055
1544,1219.6547846794128
1545,1220.1577849388123
1546,1220.6607851982117
1547,1221.1697854995728
1548,1221.6737859249115
1549,1222.176786184311
1550,1222.6787865161896
1551,1223.1827869415283
1552,1223.6857872009277
1553,1224.1897876262665
1554,1224.694787979126
1555,1225.2057881355286
1556,1225.715788602829
1557,1226.227788925171
1558,1226.7397892475128
1559,1227.2527894973755
1560,1227.7677898406982
1561,1228.2907900810242
1562,1228.8177905082703
1563,1229.348790884018
1564,1229.8777911663055
1565,1230.4067914485931
1566,1230.939791917801
1567,1231.4767923355103
1568,1232.0117926597595
1569,1232.5427930355072
1570,1233.0717933177948
1571,1233.5977935791016
1572,1234.1237938404083
1573,1234.654794216156
1574,1235.1857945919037
1575,1235.7117948532104
1576,1236.229795217514
1577,1236.7447955608368
1578,1237.255795955658
1579,1237.7707962989807
1580,1238.2847967147827
1581,1238.801796913147
1582,1239.3247973918915
1583,1239.8527975082397
1584,1240.3777980804443
1585,1240.901798248291
1586,1241.4277987480164
1587,1241.956799030304
1588,1242.4857993125916
1589,1243.0187995433807
1590,1243.5518000125885
1591,1244.0848002433777
1592,1244.6178007125854
1593,1245.1578011512756
1594,1245.6918013095856
1595,1246.2168016433716
1596,1246.7468020915985
1597,1247.2708024978638
1598,1247.787802696228
1599,1248.29980301857
1600,1248.8128035068512
1601,1249.3238036632538
1602,1249.8328039646149
1603,1250.3368043899536
1604,1250.8408045768738
1605,1251.3448050022125
1606,1251.8468053340912
1607,1252.3538057804108
1608,1252.8618059158325
1609,1253.3768062591553
1610,1253.8998067378998
1611,1254.421807050705
1612,1254.94180727005
1613,1255.4628076553345
1614,1255.9848079681396
1615,1256.5068082809448
1616,1257.0298087596893
1617,1257.558809041977
1618,1258.0898094177246
1619,1258.6238098144531
1620,1259.160809993744
1621,1259.700810432434
1622,1260.2348108291626
1623,1260.764811038971
1624,1261.2888114452362
1625,1261.8058116436005
1626,1262.3198120594025
1627,1262.835812330246
1628,1263.3578126430511
1629,1263.8868131637573
1630,1264.4258134365082
1631,1264.9708137512207
1632,1265.5118141174316
1633,1266.0518145561218
1634,1266.589814901352
1635,1267.1288151741028
1636,1267.6718156337738
1637,1268.215815782547
1638,1268.7578163146973
1639,1269.294816493988
1640,1269.8328168392181
1641,1270.3778171539307
1642,1270.9258177280426
1643,1271.473818063736
1644,1272.0198183059692
1645,1272.5678186416626
1646,1273.1248190402985
1647,1273.693819284439
1648,1274.2718198299408
1649,1274.8488202095032
1650,1275.4228205680847
1651,1276.002820968628
1652,1276.5828213691711
1653,1277.1608216762543
1654,1277.7368218898773
1655,1278.3138222694397
1656,1278.893822669983
1657,1279.4908230304718
1658,1280.08682346344
1659,1280.6738238334656
1660,1281.2558243274689
1661,1281.831824541092
1662,1282.4068250656128
1663,1282.9828252792358
1664,1283.5618257522583
1665,1284.132826089859
1666,1284.697826385498
1667,1285.2608268260956
1668,1285.8238272666931
1669,1286.3968274593353
1670,1286.9658279418945
1671,1287.5348281860352
1672,1288.107828617096
1673,1288.6868290901184
1674,1289.2698295116425
1675,1289.849829673767
1676,1290.4268300533295
1677,1291.0018305778503
1678,1291.5788309574127
1679,1292.158831357956
1680,1292.7438316345215
1681,1293.3298320770264
1682,1293.9108324050903
1683,1294.4908328056335
1684,1295.0768332481384
1685,1295.6588335037231
1686,1296.244833946228
1687,1296.8328342437744
1688,1297.4228346347809
1689,1298.0198349952698
1690,1298.6038353443146
1691,1299.1798357963562
1692,1299.7498362064362
1693,1300.317836523056
1694,1300.885836839676
1695,1301.4448373317719
1696,1301.9988377094269
1697,1302.5518379211426
1698,1303.1088383197784
1699,1303.6608386039734
1700,1304.2148389816284
1701,1304.7718393802643
1702,1305.3258397579193
1703,1305.8828401565552
1704,1306.4428405761719
1705,1306.9978408813477
1706,1307.5448412895203
1707,1308.0928416252136
1708,1308.6348419189453
1709,1309.1808421611786
1710,1309.730842590332
1711,1310.287842988968
1712,1310.8568432331085
1713,1311.43084359169
1714,1312.0048439502716
1715,1312.5768444538116
1716,1313.148844718933
1717,1313.7228450775146
1718,1314.3038454055786
1719,1314.8848459720612
1720,1315.4588463306427
1721,1316.0298466682434
1722,1316.6018469333649
1723,1317.1728472709656
1724,1317.7558476924896
1725,1318.3428480625153
1726,1318.9348485469818
1727,1319.525848865509
1728,1320.1158492565155
1729,1320.7018496990204
1730,1321.2808499336243
1731,1321.856850385666
1732,1322.423850774765
1733,1322.988851070404
1734,1323.5498514175415
1735,1324.1078517436981
1736,1324.666852235794
1737,1325.2268526554108
1738,1325.7898528575897
1739,1326.355853319168
1740,1326.9158537387848
1741,1327.4738540649414
1742,1328.0228543281555
1743,1328.5578546524048
1744,1329.0878551006317
1745,1329.6168553829193
1746,1330.1488556861877
1747,1330.6818561553955
1748,1331.2168564796448
1749,1331.7578568458557
1750,1332.301856994629
1751,1332.8508574962616
1752,1333.4018578529358
1753,1333.9498581886292
1754,1334.4978585243225
1755,1335.0498588085175
1756,1335.6038591861725
1757,1336.1628596782684
1758,1336.729859828949
1759,1337.3028602600098
1760,1337.8788607120514
1761,1338.4568610191345
1762,1339.0438613891602
1763,1339.6288619041443
1764,1340.1928622722626
1765,1340.7438626289368
1766,1341.2838628292084
1767,1341.8158631324768
1768,1342.3478636741638
1769,1342.8838639259338
1770,1343.4278643131256
1771,1343.975864648819
1772,1344.5308649539948
1773,1345.0858652591705
1774,1345.6578657627106
1775,1346.2368659973145
1776,1346.8228664398193
1777,1347.4108667373657
1778,1347.9978671073914
1779,1348.5808675289154
1780,1349.1618678569794
1781,1349.739868402481
1782,1350.3008687496185
1783,1350.843868970871
1784,1351.3798694610596
1785,1351.9028697013855
1786,1352.418869972229
1787,1352.932870388031
1788,1353.4508707523346
1789,1353.9688711166382
1790,1354.4908714294434
1791,1355.0188717842102
1792,1355.562872171402
1793,1356.1238725185394
1794,1356.7148728370667
1795,1357.3178732395172
1796,1357.9338736534119
1797,1358.556874036789
1798,1359.166874408722
1799,1359.7778747081757
1800,1360.3778750896454
1801,1360.9708755016327
1802,1361.5548758506775
1803,1362.1278762817383
1804,1362.7098767757416
1805,1363.3008770942688
1806,1363.9038774967194
1807,1364.5268778800964
1808,1365.145878314972
1809,1365.7678785324097
1810,1366.3928790092468
1811,1367.017879486084
1812,1367.6488797664642
1813,1368.261880159378
1814,1368.8668806552887
1815,1369.4698810577393
1816,1370.0728814601898
1817,1370.6728818416595
1818,1371.260882139206
1819,1371.8288824558258
1820,1372.3858828544617
1821,1372.9328832626343
1822,1373.4738836288452
1823,1374.017884016037
1824,1374.5598843097687
1825,1375.1018846035004
1826,1375.648885011673
1827,1376.2018852233887
1828,1376.7648856639862
1829,1377.337886095047
1830,1377.9268865585327
1831,1378.5268869400024
1832,1379.135887145996
1833,1379.7478876113892
1834,1380.3548879623413
1835,1380.9678883552551
1836,1381.5768887996674
1837,1382.1888892650604
1838,1382.804889678955
1839,1383.4448900222778
1840,1384.0858902931213
1841,1384.717890739441
1842,1385.3578913211823
1843,1385.999891757965
1844,1386.6418919563293
1845,1387.2798924446106
1846,1387.912892818451
1847,1388.5498933792114
1848,1389.1708936691284
1849,1389.77889418602
1850,1390.3798944950104
1851,1390.9738948345184
1852,1391.5758953094482
1853,1392.1938955783844
1854,1392.8188960552216
1855,1393.4478964805603
1856,1394.087896823883
1857,1394.731897354126
1858,1395.383897781372
1859,1396.020898103714
1860,1396.646898508072
1861,1397.2658989429474
1862,1397.8918993473053
1863,1398.5288996696472
1864,1399.16890001297
1865,1399.7879004478455
1866,1400.40390086174
1867,1401.016901254654
1868,1401.6329016685486
1869,1402.2609021663666
1870,1402.8919024467468
1871,1403.5309028625488
1872,1404.1779034137726
1873,1404.8389036655426
1874,1405.473904132843
1875,1406.1039044857025
1876,1406.7299048900604
1877,1407.3649053573608
1878,1407.9949057102203
1879,1408.6119062900543
1880,1409.225906610489
1881,1409.8409068584442
1882,1410.4639074802399
1883,1411.1079077720642
1884,1411.7579081058502
1885,1412.4039087295532
1886,1413.0519089698792
1887,1413.6979093551636
1888,1414.3429098129272
1889,1414.9729101657867
1890,1415.5929107666016
1891,1416.2179110050201
1892,1416.848911523819
1893,1417.485911846161
1894,1418.1189122200012
1895,1418.7569127082825
1896,1419.3929131031036
1897,1420.0189135074615
1898,1420.635913848877
1899,1421.2559142112732
1900,1421.8749146461487
1901,1422.5049152374268
1902,1423.1369154453278
1903,1423.7599158287048
1904,1424.3839163780212
1905,1425.0099167823792
1906,1425.6449172496796
1907,1426.2739174365997
1908,1426.9029178619385
1909,1427.5169184207916
1910,1428.1149187088013
1911,1428.703919172287
1912,1429.2789194583893
1913,1429.838919878006
1914,1430.3999202251434
1915,1430.9609205722809
1916,1431.5189208984375
1917,1432.081921339035
1918,1432.6489217281342
1919,1433.216922044754
1920,1433.7829222679138
1921,1434.3419227600098
1922,1434.8979229927063
1923,1435.457923412323
1924,1436.0259237289429
1925,1436.6039242744446
1926,1437.2039246559143
1927,1437.8159248828888
1928,1438.4289252758026
1929,1439.0359258651733
1930,1439.6269261837006
1931,1440.2089264392853
1932,1440.7889268398285
1933,1441.3719272613525
1934,1441.963927745819
1935,1442.5579280853271
1936,1443.1469283103943
1937,1443.7289288043976
1938,1444.3139290809631
1939,1444.899929523468
1940,1445.4979298114777
1941,1446.103930234909
1942,1446.7099306583405
1943,1447.3169310092926
1944,1447.924931526184
1945,1448.532931804657
1946,1449.1399321556091
1947,1449.743932723999
1948,1450.3499331474304
1949,1450.9669334888458
1950,1451.589933872223
1951,1452.2139341831207
1952,1452.8189346790314
1953,1453.4159350395203
1954,1454.004935503006
1955,1454.5929358005524
1956,1455.1789362430573
1957,1455.7539365291595
1958,1456.3349368572235
1959,1456.9179372787476
1960,1457.5069377422333
1961,1458.1039381027222
1962,1458.7099385261536
1963,1459.324938774109
1964,1459.949939250946
1965,1460.5729396343231
1966,1461.1999399662018
1967,1461.8279404640198
1968,1462.4589407444
1969,1463.0909411907196
1970,1463.714941740036
1971,1464.335942029953
1972,1464.9549424648285
1973,1465.5769429206848
1974,1466.2059433460236
1975,1466.835943698883
1976,1467.4689440727234
1977,1468.1079444885254
1978,1468.761944770813
1979,1469.4249453544617
1980,1470.0939457416534
1981,1470.7559461593628
1982,1471.4129467010498
1983,1472.0689470767975
1984,1472.7249474525452
1985,1473.3839478492737
1986,1474.032948255539
1987,1474.6769487857819
1988,1475.3159492015839
1989,1475.9509494304657
1990,1476.577950000763
1991,1477.20095038414
1992,1477.8069508075714
1993,1478.4119510650635
1994,1479.0229513645172
1995,1479.6489517688751
1996,1480.2859523296356
1997,1480.9439527988434
1998,1481.615953207016
1999,1482.2649536132812
2000,1482.9009540081024
2001,1483.5389544963837
2002,1484.198954820633
2003,1484.9009552001953
2004,1485.5889556407928
2005,1486.2619562149048
2006,1486.9259564876556
2007,1487.581957101822
2008,1488.2339572906494
2009,1488.8829579353333
2010,1489.5319583415985
2011,1490.1849586963654
2012,1490.8599591255188
2013,1491.5509595870972
2014,1492.2389600276947
2015,1492.916960477829
2016,1493.593960762024
2017,1494.2759613990784
2018,1494.963961839676
2019,1495.6459622383118
2020,1496.323962688446
2021,1497.0099630355835
2022,1497.715963602066
2023,1498.4189639091492
2024,1499.0979642868042
2025,1499.771964788437
2026,1500.439965248108
2027,1501.1019656658173
2028,1501.7639660835266
2029,1502.4229664802551
2030,1503.095967054367
2031,1503.7969675064087
2032,1504.52596783638
2033,1505.238968372345
2034,1505.941968679428
2035,1506.6629693508148
2036,1507.3759696483612
2037,1508.0819702148438
2038,1508.7479705810547
2039,1509.3949711322784
2040,1510.0269713401794
2041,1510.6529717445374
2042,1511.2889721393585
2043,1511.9319727420807
2044,1512.5559730529785
2045,1513.1719734668732
2046,1513.786973953247
2047,1514.4009742736816
2048,1515.0199747085571
2049,1515.6519751548767
2050,1516.3039755821228
2051,1516.952975988388
2052,1517.5939762592316
2053,1518.2339766025543
2054,1518.8769772052765
2055,1519.5299775600433
2056,1520.1899778842926
2057,1520.8439784049988
2058,1521.4949789047241
2059,1522.1399791240692
2060,1522.7829797267914
2061,1523.4309799671173
2062,1524.0839805603027
2063,1524.7409808635712
2064,1525.4029812812805
2065,1526.0569818019867
2066,1526.7069821357727
2067,1527.3619825839996
2068,1528.0149829387665
2069,1528.6599833965302
2070,1529.3059837818146
2071,1529.9499843120575
2072,1530.6009845733643
2073,1531.271985054016
2074,1531.9529855251312
2075,1532.6459860801697
2076,1533.3259863853455
2077,1534.0019867420197
2078,1534.6759872436523
2079,1535.3579876422882
2080,1536.0489881038666
2081,1536.736988544464
2082,1537.4119889736176
2083,1538.0879895687103
2084,1538.770989894867
2085,1539.4729902744293
2086,1540.1879909038544
2087,1540.89999127388
2088,1541.5999917984009
2089,1542.29399228096
2090,1542.9939925670624
2091,1543.6979930400848
2092,1544.391993522644
2093,1545.070993900299
2094,1545.7429943084717
2095,1546.4059948921204
2096,1547.0799951553345
2097,1547.7759957313538
2098,1548.482996225357
2099,1549.1819965839386
2100,1549.8739969730377
2101,1550.5579974651337
2102,1551.2409980297089
2103,1551.9189984798431
2104,1552.6089987754822
2105,1553.2859992980957
2106,1553.9599997997284
2107,1554.6310000419617
2108,1555.3070006370544
2109,1555.9890010356903
2110,1556.672001361847
2111,1557.3430018424988
2112,1558.0160021781921
2113,1558.703002691269
2114,1559.400003194809
2115,1560.1050035953522
2116,1560.8070039749146
2117,1561.4970045089722
2118,1562.1880049705505
2119,1562.8860054016113
2120,1563.589005947113
2121,1564.2980062961578
2122,1564.990006685257
2123,1565.676007270813
2124,1566.360007762909
2125,1567.0480082035065
2126,1567.747008562088
2127,1568.4450089931488
2128,1569.1400094032288
2129,1569.8460099697113
2130,1570.5450103282928
2131,1571.2320108413696
2132,1571.8990111351013
2133,1572.5520117282867
2134,1573.1910121440887
2135,1573.8410124778748
2136,1574.517012834549
2137,1575.2070133686066
2138,1575.9070138931274
2139,1576.601014137268
2140,1577.2950146198273
2141,1578.009015083313
2142,1578.7310156822205
2143,1579.4380161762238
2144,1580.1330165863037
2145,1580.8260169029236
2146,1581.5230174064636
2147,1582.227017879486
2148,1582.9320182800293
2149,1583.6280188560486
2150,1584.3260192871094
2151,1585.0300197601318
2152,1585.7410202026367
2153,1586.4380204677582
2154,1587.1210210323334
2155,1587.798021554947
2156,1588.4710218906403
2157,1589.1420223712921
2158,1589.811022758484
2159,1590.476023197174
2160,1591.1480236053467
2161,1591.828024148941
2162,1592.521024465561
2163,1593.21302485466
2164,1593.8960254192352
2165,1594.5850257873535
2166,1595.2650263309479
2167,1595.930026769638
2168,1596.591027021408
2169,1597.2470276355743
2170,1597.9080278873444
2171,1598.5720283985138
2172,1599.2450287342072
2173,1599.9210293293
2174,1600.589029788971
2175,1601.2590301036835
2176,1601.960030555725
2177,1602.6810309886932
2178,1603.426031589508
2179,1604.161031961441
2180,1604.8790323734283
2181,1605.5810329914093
2182,1606.2650332450867
2183,1606.9460337162018
2184,1607.624034166336
2185,1608.310034751892
2186,1609.0120351314545
2187,1609.7030355930328
2188,1610.3940360546112
2189,1611.0880365371704
2190,1611.7960369586945
2191,1612.5250372886658
2192,1613.2710378170013
2193,1614.0110383033752
2194,1614.7590386867523
2195,1615.4940392971039
2196,1616.226039648056
2197,1616.9300401210785
2198,1617.618040561676
2199,1618.2890410423279
2200,1618.9490416049957
2201,1619.59304189682
2202,1620.232042312622
2203,1620.8700428009033
2204,1621.5070431232452
2205,1622.1450436115265
2206,1622.7660439014435
2207,1623.3910443782806
2208,1624.0270447731018
2209,1624.6670451164246
2210,1625.304045677185
2211,1625.9530460834503
2212,1626.6290464401245
2213,1627.360046863556
2214,1628.126047372818
2215,1628.8930478096008
2216,1629.6690483093262
2217,1630.4320487976074
2218,1631.1710493564606
2219,1631.8830497264862
2220,1632.5660502910614
2221,1633.2500507831573
2222,1633.9540512561798
2223,1634.7290515899658
2224,1635.5830521583557
2225,1636.4100527763367
2226,1637.1910531520844
2227,1638.006053686142
2228,1638.8430542945862
2229,1639.7280547618866
2230,1640.6050553321838
2231,1641.3990559577942
2232,1642.1610565185547
2233,1642.9160568714142
2234,1643.674057483673
2235,1644.465057849884
2236,1645.2860584259033
2237,1646.087059020996
2238,1646.867059469223
2239,1647.6570599079132
2240,1648.456060409546
2241,1649.280061006546
2242,1650.0880615711212
2243,1650.8520619869232
2244,1651.653062582016
2245,1652.4900631904602
2246,1653.3430635929108
2247,1654.1790642738342
2248,1654.9880647659302
2249,1655.7870652675629
2250,1656.5560657978058
2251,1657.288066148758
2252,1658.0000665187836
2253,1658.720067024231
2254,1659.44606757164
2255,1660.170068025589
2256,1660.8580684661865
2257,1661.5480690002441
2258,1662.2310693264008
2259,1662.9220697879791
2260,1663.638070344925
2261,1664.3930706977844
2262,1665.163071155548
2263,1665.9350717067719
2264,1666.674072265625
2265,1667.3970725536346
2266,1668.1230731010437
2267,1668.8550736904144
2268,1669.5950741767883
2269,1670.3280744552612
2270,1671.0510749816895
2271,1671.7900755405426
2272,1672.566076040268
2273,1673.3420765399933
2274,1674.0820770263672
2275,1674.838077545166
2276,1675.604078054428
2277,1676.3830783367157
2278,1677.177078962326
2279,1677.9390795230865
2280,1678.670079946518
2281,1679.3970804214478
2282,1680.1220808029175
2283,1680.8600814342499
2284,1681.6010818481445
2285,1682.3540823459625
2286,1683.1390826702118
2287,1683.9390833377838
2288,1684.71808385849
2289,1685.4700841903687
2290,1686.2360846996307
2291,1687.0000853538513
2292,1687.7910857200623
2293,1688.552086353302
2294,1689.3090867996216
2295,1690.0840873718262
2296,1690.891087770462
2297,1691.6940882205963
2298,1692.4520888328552
2299,1693.2070891857147
2300,1693.9500896930695
2301,1694.7160902023315
2302,1695.4660906791687
2303,1696.1930911540985
2304,1696.9380917549133
2305,1697.7010922431946
2306,1698.5090925693512
2307,1699.3320932388306
2308,1700.1400938034058
2309,1700.9450943470001
2310,1701.7480947971344
2311,1702.4990952014923
2312,1703.231095790863
2313,1703.9700961112976
2314,1704.735096693039
2315,1705.5200972557068
2316,1706.3170976638794
2317,1707.07909822464
2318,1707.827098608017
2319,1708.5850992202759
2320,1709.364099740982
2321,1710.1511001586914
2322,1710.9091007709503
2323,1711.6561012268066
2324,1712.416101694107
2325,1713.178102016449
2326,1713.9591026306152
2327,1714.6991031169891
2328,1715.4411034584045
2329,1716.1881041526794
2330,1716.9731044769287
2331,1717.7461049556732
2332,1718.4841055870056
2333,1719.2321059703827
2334,1719.9961063861847
2335,1720.779107093811
2336,1721.5491075515747
2337,1722.3061079978943
2338,1723.107108592987
2339,1723.927109003067
2340,1724.7531094551086
2341,1725.5371100902557
2342,1726.3031105995178
2343,1727.06911110878
2344,1727.844111442566
2345,1728.5931119918823
2346,1729.3381125926971
2347,1730.0791130065918
2348,1730.8141133785248
2349,1731.550113916397
2350,1732.2761144638062
2351,1732.9731147289276
2352,1733.6761152744293
2353,1734.3711156845093
2354,1735.0681161880493
2355,1735.7891166210175
2356,1736.5601172447205
2357,1737.3531177043915
2358,1738.1461181640625
2359,1738.903118610382
2360,1739.6691191196442
2361,1740.4391195774078
2362,1741.220120191574
2363,1741.9801206588745
2364,1742.7071211338043
2365,1743.4491214752197
2366,1744.2221221923828
2367,1745.068122625351
2368,1745.901123046875
2369,1746.6911237239838
2370,1747.4971241950989
2371,1748.3021247386932
2372,1749.11212515831
2373,1749.8771257400513
2374,1750.6341261863708
2375,1751.4091267585754
2376,1752.2001271247864
2377,1752.9661276340485
2378,1753.746128320694
2379,1754.5561287403107
2380,1755.37712931633
2381,1756.19712972641
2382,1756.9801301956177
2383,1757.7911307811737
2384,1758.6021313667297
2385,1759.3841319084167
2386,1760.1301321983337
2387,1760.8801329135895
2388,1761.6421332359314
2389,1762.4491338729858
2390,1763.2641344070435
2391,1764.0381348133087
2392,1764.8291354179382
2393,1765.6401357650757
2394,1766.4681363105774
2395,1767.261137008667
2396,1768.0631375312805
2397,1768.8731379508972
2398,1769.6681385040283
2399,1770.4261388778687
2400,1771.2061393260956
2401,1772.008139848709
2402,1772.8291404247284
2403,1773.615140914917
2404,1774.3911414146423
2405,1775.177141904831
2406,1775.988142490387
2407,1776.7911429405212
2408,1777.58114361763
2409,1778.3941440582275
2410,1779.236144542694
2411,1780.021145105362
2412,1780.7991456985474
2413,1781.5901460647583
2414,1782.3831465244293
2415,1783.1681470870972
2416,1783.9321477413177
2417,1784.730148077011
2418,1785.5541486740112
2419,1786.3671491146088
2420,1787.1761496067047
2421,1788.0191502571106
2422,1788.869150876999
2423,1789.644151210785
2424,1790.4221518039703
2425,1791.2141523361206
2426,1792.0101528167725
2427,1792.794153213501
2428,1793.567153930664
2429,1794.363154411316
2430,1795.1991548538208
2431,1796.0391554832458
2432,1796.8371558189392
2433,1797.665156364441
2434,1798.5221569538116
2435,1799.3521575927734
2436,1800.136157989502
2437,1800.9231586456299
2438,1801.7091591358185
2439,1802.4871594905853
2440,1803.2491600513458
2441,1804.044160604477
2442,1804.866161108017
2443,1805.6671617031097
2444,1806.4671621322632
2445,1807.2851626873016
2446,1808.125163078308
2447,1808.9201636314392
2448,1809.719164133072
2449,1810.545164823532
2450,1811.370165348053
2451,1812.15016579628
2452,1812.9541664123535
2453,1813.7681667804718
2454,1814.5861673355103
2455,1815.3731677532196
2456,1816.1741683483124
2457,1817.000168800354
2458,1817.84516954422
2459,1818.6401698589325
2460,1819.4461705684662
2461,1820.2561709880829
2462,1821.062171459198
2463,1821.8141720294952
2464,1822.5631725788116
2465,1823.3181729316711
2466,1824.090173482895
2467,1824.8501739501953
2468,1825.6001744270325
2469,1826.375174999237
2470,1827.2091753482819
2471,1828.0541760921478
2472,1828.8631765842438
2473,1829.6871769428253
2474,1830.531177520752
2475,1831.3501782417297
2476,1832.1251785755157
2477,1832.901179075241
2478,1833.686179637909
2479,1834.468180179596
2480,1835.2281806468964
2481,1836.0011811256409
2482,1836.7811815738678
2483,1837.562182188034
2484,1838.3271825313568
2485,1839.1051831245422
2486,1839.9141836166382
2487,1840.7221841812134
2488,1841.4991846084595
2489,1842.2711851596832
2490,1843.027185678482
2491,1843.7711861133575
2492,1844.4941866397858
2493,1845.1951870918274
2494,1845.894187450409
2495,1846.5991878509521
2496,1847.3121883869171
2497,1848.0421888828278
2498,1848.807189464569
2499,1849.5811898708344
2500,1850.322190284729
2501,1851.0671908855438
2502,1851.8311913013458
2503,1852.6201918125153
2504,1853.3881924152374
2505,1854.127192735672
2506,1854.893193244934
2507,1855.6811938285828
2508,1856.516194343567
2509,1857.306194782257
2510,1858.0671954154968
2511,1858.8511958122253
2512,1859.655196428299
2513,1860.4691967964172
2514,1861.2381973266602
2515,1862.0011978149414
2516,1862.7721984386444
2517,1863.5511989593506
2518,1864.320199251175
2519,1865.0801997184753
2520,1865.873200416565
2521,1866.7012009620667
2522,1867.5002014636993
2523,1868.2632019519806
2524,1869.0432024002075
2525,1869.8312029838562
2526,1870.6622033119202
2527,1871.4292039871216
2528,1872.200204372406
2529,1872.993204832077
2530,1873.8122055530548
2531,1874.6192059516907
2532,1875.3892064094543
2533,1876.1852068901062
2534,1876.988207578659
2535,1877.8002080917358
2536,1878.5672085285187
2537,1879.3082089424133
2538,1880.0602095127106
2539,1880.8322100639343
2540,1881.6332104206085
2541,1882.4042110443115
2542,1883.1692113876343
2543,1883.9542119503021
2544,1884.7432124614716
2545,1885.5542130470276
2546,1886.330213546753
2547,1887.0952138900757
2548,1887.8552145957947
2549,1888.613214969635
2550,1889.3872153759003
2551,1890.1312160491943
2552,1890.872216463089
2553,1891.6222169399261
2554,1892.418217420578
2555,1893.2522180080414
2556,1894.0272183418274
2557,1894.836219072342
2558,1895.6632194519043
2559,1896.4942200183868
2560,1897.268220424652
2561,1898.0352210998535
2562,1898.7932214736938
2563,1899.5372219085693
2564,1900.2662224769592
2565,1900.9732229709625
2566,1901.688223361969
2567,1902.401223897934
2568,1903.1232242584229
2569,1903.860224723816
2570,1904.6302251815796
2571,1905.3992257118225
2572,1906.1402261257172
2573,1906.8882267475128
2574,1907.6632273197174
2575,1908.465227842331
2576,1909.2642283439636
2577,1910.0292286872864
2578,1910.8132293224335
2579,1911.6122298240662
2580,1912.4162302017212
2581,1913.1892306804657
2582,1913.9682312011719
2583,1914.7542316913605
2584,1915.5492322444916
2585,1916.3182327747345
2586,1917.078233242035
2587,1917.8612337112427
2588,1918.6732342243195
2589,1919.4842348098755
2590,1920.2582352161407
2591,1921.0462357997894
2592,1921.8462362289429
2593,1922.63223695755
2594,1923.4032373428345
2595,1924.1822378635406
2596,1924.9802384376526
2597,1925.7942388057709
2598,1926.5972394943237
2599,1927.3992400169373
2600,1928.209240436554
2601,1929.0272409915924
2602,1929.80824136734
2603,1930.5842418670654
2604,1931.3732423782349
2605,1932.2012429237366
2606,1933.0052435398102
2607,1933.7822439670563
2608,1934.5952446460724
2609,1935.432245016098
2610,1936.2622456550598
2611,1937.0442461967468
2612,1937.8112466335297
2613,1938.589247226715
2614,1939.385247707367
2615,1940.1872482299805
2616,1940.9592485427856
2617,1941.7452490329742
2618,1942.548249721527
2619,1943.3482501506805
2620,1944.1162507534027
2621,1944.9072511196136
2622,1945.725251674652
2623,1946.5572521686554
2624,1947.316252708435
2625,1948.0632531642914
2626,1948.8052537441254
2627,1949.541254043579
2628,1950.259254693985
2629,1950.951255083084
2630,1951.6552555561066
2631,1952.3692560195923
2632,1953.0772564411163
2633,1953.8112568855286
2634,1954.5722572803497
2635,1955.3522579669952
2636,1956.1362583637238
2637,1956.8802587985992
2638,1957.6462593078613
2639,1958.4282598495483
2640,1959.2492604255676
2641,1960.0332608222961
2642,1960.8402614593506
2643,1961.6672620773315
2644,1962.4862625598907
2645,1963.2592630386353
2646,1964.0412635803223
2647,1964.8332641124725
2648,1965.6412644386292
2649,1966.4432649612427
2650,1967.2262654304504
2651,1968.0562660694122
2652,1968.8892664909363
2653,1969.7542672157288
2654,1970.5662677288055
2655,1971.3802680969238
2656,1972.2002687454224
2657,1972.954269170761
2658,1973.6682696342468
2659,1974.378270149231
2660,1975.086270570755
2661,1975.7892711162567
2662,1976.507271528244
2663,1977.236272096634
2664,1977.9592723846436
2665,1978.6802728176117
2666,1979.40327334404
2667,1980.1202738285065
2668,1980.8122742176056
2669,1981.4822747707367
2670,1982.1472752094269
2671,1982.8182754516602
2672,1983.4972760677338
2673,1984.186276435852
2674,1984.899276971817
2675,1985.6282773017883
2676,1986.360277891159
2677,1987.0772783756256
2678,1987.7802786827087
2679,1988.471279144287
2680,1989.1702797412872
2681,1989.8892800807953
2682,1990.6352806091309
2683,1991.3972811698914
2684,1992.140281677246
2685,1992.8792819976807
2686,1993.6052825450897
2687,1994.3532829284668
2688,1995.1062834262848
2689,1995.8442840576172
2690,1996.5912845134735
2691,1997.3372848033905
2692,1998.0922853946686
2693,1998.8482859134674
2694,1999.5952863693237
2695,2000.3612868785858
2696,2001.1252872943878
2697,2001.8972878456116
2698,2002.6762883663177
2699,2003.426288843155
2700,2004.165289402008
2701,2004.9072897434235
2702,2005.6622903347015
2703,2006.4282908439636
2704,2007.1782913208008
2705,2007.9292917251587
2706,2008.687292098999
2707,2009.4512927532196
2708,2010.2172932624817
2709,2010.9732937812805
2710,2011.7142941951752
2711,2012.4402947425842
2712,2013.1612951755524
2713,2013.8692955970764
2714,2014.5722959041595
2715,2015.278296470642
2716,2016.0252969264984
2717,2016.8022973537445
2718,2017.5842978954315
2719,2018.344298362732
2720,2019.094298839569
2721,2019.8512992858887
2722,2020.6122999191284
2723,2021.3723003864288
2724,2022.1183009147644
2725,2022.8583014011383
2726,2023.601301908493
2727,2024.3513023853302
2728,2025.0973026752472
2729,2025.8343031406403
2730,2026.5723037719727
2731,2027.3083040714264
2732,2028.0503046512604
2733,2028.793305158615
2734,2029.5363056659698
2735,2030.2743060588837
2736,2031.0153064727783
2737,2031.758306980133
2738,2032.4993076324463
2739,2033.2293078899384
2740,2033.953308582306
2741,2034.6753089427948
2742,2035.4113094806671
2743,2036.1483099460602
2744,2036.8793103694916
2745,2037.6023108959198
2746,2038.3373112678528
2747,2039.084311723709
2748,2039.8233122825623
2749,2040.5513126850128
2750,2041.2773132324219
2751,2042.0163135528564
2752,2042.7683141231537
2753,2043.5063145160675
2754,2044.2353150844574
2755,2044.9573154449463
2756,2045.6833159923553
2757,2046.3983163833618
2758,2047.081316947937
2759,2047.760317325592
2760,2048.430317878723
2761,2049.0953183174133
2762,2049.7573187351227
2763,2050.398319005966
2764,2051.038319349289
2765,2051.680319786072
2766,2052.334320306778
2767,2053.0173206329346
2768,2053.7413210868835
2769,2054.4783215522766
2770,2055.1913220882416
2771,2055.910322666168
2772,2056.6523230075836
2773,2057.417323589325
2774,2058.1793241500854
2775,2058.9193246364594
2776,2059.6793251037598
2777,2060.461325407028
2778,2061.2613260746
2779,2062.0563266277313
2780,2062.821326971054
2781,2063.5513274669647
2782,2064.2673280239105
2783,2064.9573283195496
2784,2065.616328716278
2785,2066.2593293190002
2786,2066.912329673767
2787,2067.6723301410675
2788,2068.522330760956
2789,2069.4093313217163
2790,2070.3143317699432
2791,2071.211332321167
2792,2072.072333097458
2793,2072.915333509445
2794,2073.774334192276
2795,2074.596334695816
2796,2075.3663351535797
2797,2076.161335706711
2798,2076.964336156845
2799,2077.8593366146088
2800,2078.8043372631073
2801,2079.6413378715515
2802,2080.483338356018
2803,2081.284338951111
2804,2082.0813393592834
2805,2082.8733398914337
2806,2083.6603405475616
2807,2084.420341014862
2808,2085.20334148407
2809,2085.9733419418335
2810,2086.7243423461914
2811,2087.4453427791595
2812,2088.1573433876038
2813,2088.8793437480927
2814,2089.6093442440033
2815,2090.32634472847
2816,2091.049345254898
2817,2091.78134560585
2818,2092.54034614563
2819,2093.3263466358185
2820,2094.1063470840454
2821,2094.8743476867676
2822,2095.67134809494
2823,2096.483348608017
2824,2097.3013491630554
2825,2098.1203496456146
2826,2098.895350217819
2827,2099.6583507061005
2828,2100.4033513069153
2829,2101.14435172081
2830,2101.8863520622253
2831,2102.6123526096344
2832,2103.350353002548
2833,2104.1053535938263
2834,2104.906354188919
2835,2105.7543547153473
2836,2106.5633552074432
2837,2107.3763556480408
2838,2108.2313561439514
2839,2109.0743567943573
2840,2109.8673572540283
2841,2110.6273577213287
2842,2111.4133582115173
2843,2112.2183587551117
2844,2113.009359359741
2845,2113.76335978508
2846,2114.476360321045
2847,2115.1963608264923
2848,2115.905361175537
2849,2116.6363615989685
2850,2117.396362066269
2851,2118.1413626670837
2852,2118.8403630256653
2853,2119.540363550186
2854,2120.2183640003204
2855,2120.88036441803
2856,2121.531364917755
2857,2122.2073652744293
2858,2122.90336561203
2859,2123.5933661460876
2860,2124.2733664512634
2861,2124.9593670368195
2862,2125.6663675308228
2863,2126.3623678684235
2864,2127.0573682785034
2865,2127.749368906021
2866,2128.4413692951202
2867,2129.105369567871
2868,2129.7613701820374
2869,2130.414370536804
2870,2131.070370912552
2871,2131.746371269226
2872,2132.4233717918396
2873,2133.103372335434
2874,2133.790372610092
2875,2134.492373228073
2876,2135.1803736686707
2877,2135.8473739624023
2878,2136.5123744010925
2879,2137.160374879837
2880,2137.796375274658
2881,2138.423375606537
2882,2139.0533759593964
2883,2139.688376426697
2884,2140.324376821518
2885,2140.962377309799
2886,2141.586377620697
2887,2142.2053780555725
2888,2142.8193786144257
2889,2143.4293789863586
2890,2144.044379234314
2891,2144.6613795757294
2892,2145.281380176544
2893,2145.9043805599213
2894,2146.5313808918
2895,2147.143381357193
2896,2147.745381593704
2897,2148.3383820056915
2898,2148.928382396698
2899,2149.526382923126
2900,2150.1303832530975
2901,2150.734383583069
2902,2151.3423838615417
2903,2151.951384305954
2904,2152.5593848228455
2905,2153.159385204315
2906,2153.756385564804
2907,2154.3543858528137
2908,2154.962386369705
2909,2155.5823867321014
2910,2156.2083871364594
2911,2156.822387456894
2912,2157.44238781929
2913,2158.060388326645
2914,2158.6883885860443
2915,2159.330389022827
2916,2159.9673895835876
2917,2160.6053898334503
2918,2161.250390291214
2919,2161.905390739441
2920,2162.562391281128
2921,2163.2033915519714
2922,2163.8453919887543
2923,2164.487392425537
2924,2165.1223928928375
2925,2165.755393266678
2926,2166.3723936080933
2927,2166.9843940734863
2928,2167.5933945178986
2929,2168.19939494133
2930,2168.8213951587677
2931,2169.4423956871033
2932,2170.069396018982
2933,2170.6973965168
2934,2171.323396921158
2935,2171.943397283554
2936,2172.5603976249695
2937,2173.1723980903625
2938,2173.775398492813
2939,2174.369398832321
2940,2174.9543991088867
2941,2175.5433995723724
2942,2176.133399963379
2943,2176.7234003543854
2944,2177.3164007663727
2945,2177.90940117836
2946,2178.5074014663696
2947,2179.1154017448425
2948,2179.739402294159
2949,2180.3744027614594
2950,2181.0184030532837
2951,2181.67240357399
2952,2182.322403907776
2953,2182.985404253006
2954,2183.6494047641754
2955,2184.3284051418304
2956,2184.9984056949615
2957,2185.6634061336517
2958,2186.326406478882
2959,2186.9794068336487
2960,2187.625407218933
2961,2188.253407716751
2962,2188.8754081726074
2963,2189.486408472061
2964,2190.0954089164734
2965,2190.7204093933105
2966,2191.3754098415375
2967,2192.0524101257324
2968,2192.7194106578827
2969,2193.3914110660553
2970,2194.071411371231
2971,2194.758411884308
2972,2195.4614124298096
2973,2196.1434128284454
2974,2196.830413341522
2975,2197.5294137001038
2976,2198.2284140586853
2977,2198.942414522171
2978,2199.6654150485992
2979,2200.3694155216217
2980,2201.073415994644
2981,2201.7784163951874
2982,2202.4894168376923
2983,2203.206417322159
2984,2203.908417701721
2985,2204.598418235779
2986,2205.2854187488556
2987,2205.989419221878
2988,2206.7054195404053
2989,2207.3984200954437
2990,2208.0804204940796
2991,2208.7544209957123
2992,2209.420421361923
2993,2210.0834217071533
2994,2210.7354221343994
2995,2211.3864226341248
2996,2212.0414230823517
2997,2212.7094235420227
2998,2213.3974239826202
2999,2214.096424341202
3000,2214.78542470932
3001,2215.4754252433777
3002,2216.164425611496
3003,2216.8434262275696
3004,2217.5014264583588
3005,2218.153426885605
3006,2218.807427406311
3007,2219.473427772522
3008,2220.1454281806946
3009,2220.8144285678864
3010,2221.488429069519
3011,2222.157429456711
3012,2222.8234300613403
3013,2223.482430458069
3014,2224.1284308433533
3015,2224.7724311351776
3016,2225.4064316749573
3017,2226.0284321308136
3018,2226.643432378769
3019,2227.239432811737
3020,2227.823433160782
3021,2228.3974335193634
3022,2228.971433877945
3023,2229.5554342269897
3024,2230.1584346294403
3025,2230.7834351062775
3026,2231.4224355220795
3027,2232.073436021805
3028,2232.7264363765717
3029,2233.386436700821
3030,2234.052437067032
3031,2234.7234375476837
3032,2235.401437997818
3033,2236.0684385299683
3034,2236.742439031601
3035,2237.4154393672943
3036,2238.102439880371
3037,2238.781440258026
3038,2239.4754407405853
3039,2240.179441213608
3040,2240.8864414691925
3041,2241.5834419727325
3042,2242.287442445755
3043,2243.0064430236816
3044,2243.7154433727264
3045,2244.400443792343
3046,2245.0654442310333
3047,2245.7184445858
3048,2246.3714451789856
3049,2247.0504455566406
3050,2247.7614459991455
3051,2248.460446357727
3052,2249.1724469661713
3053,2249.8924474716187
3054,2250.6144478321075
3055,2251.31844830513
3056,2252.0224487781525
3057,2252.7314491271973
3058,2253.4574496746063
3059,2254.1834502220154
3060,2254.8894505500793
3061,2255.6014511585236
3062,2256.2974514961243
3063,2256.9834518432617
3064,2257.6494524478912
3065,2258.3224527835846
3066,2258.998453140259
3067,2259.7064538002014
3068,2260.4094541072845
3069,2261.099454641342
3070,2261.7904551029205
3071,2262.491455554962
3072,2263.203455924988
3073,2263.9074563980103
3074,2264.607456922531
3075,2265.3064572811127
3076,2266.0034577846527
3077,2266.692458152771
3078,2267.3614585399628
3079,2268.0244591236115
3080,2268.6894595623016
3081,2269.37845993042
3082,2270.0944604873657
3083,2270.8024609088898
3084,2271.521461248398
3085,2272.2484617233276
3086,2272.981462240219
3087,2273.692462682724
3088,2274.4044630527496
3089,2275.116463661194
3090,2275.8284640312195
3091,2276.5274646282196
3092,2277.2284648418427
3093,2277.927465438843
3094,2278.6224658489227
3095,2279.298466205597
3096,2279.9724667072296
3097,2280.6544671058655
3098,2281.3414676189423
3099,2282.010468006134
3100,2282.663468360901
3101,2283.309468984604
3102,2283.951469182968
3103,2284.5894696712494
3104,2285.216470003128
3105,2285.849470615387
3106,2286.485471010208
3107,2287.12047123909
3108,2287.743471622467
3109,2288.3544721603394
3110,2288.9564723968506
3111,2289.5554728507996
3112,2290.16047334671
3113,2290.7754735946655
3114,2291.4054741859436
3115,2292.0714745521545
3116,2292.778475046158
3117,2293.4924755096436
3118,2294.202475786209
3119,2294.8844764232635
3120,2295.56547665596
3121,2296.2484772205353
3122,2296.9264776706696
3123,2297.587478160858
3124,2298.2504785060883
3125,2298.903478860855
3126,2299.5524792671204
3127,2300.189479827881
3128,2300.821480035782
3129,2301.4424805641174
3130,2302.0624809265137
3131,2302.695481300354
3132,2303.334481716156
3133,2303.9834821224213
3134,2304.6404826641083
3135,2305.3094830513
3136,2305.9704835414886
3137,2306.6314837932587
3138,2307.297484397888
3139,2307.961484670639
3140,2308.616485118866
3141,2309.2784855365753
3142,2309.9444859027863
3143,2310.6144864559174
3144,2311.285486936569
3145,2311.9474873542786
3146,2312.6124877929688
3147,2313.2794880867004
3148,2313.951488494873
3149,2314.6164889335632
3150,2315.2754893302917
3151,2315.940489768982
3152,2316.6154901981354
3153,2317.2984907627106
3154,2317.973491191864
3155,2318.638491630554
3156,2319.304491996765
3157,2319.9684925079346
3158,2320.6324927806854
3159,2321.2864933013916
3160,2321.951493740082
3161,2322.616494178772
3162,2323.2914946079254
3163,2323.9674949645996
3164,2324.6304955482483
3165,2325.3034958839417
3166,2325.980496406555
3167,2326.6684968471527
3168,2327.342497110367
3169,2328.022497653961
3170,2328.694498062134
3171,2329.364498615265
3172,2330.0374989509583
3173,2330.693499326706
3174,2331.3624997138977
3175,2332.0365002155304
3176,2332.724500656128
3177,2333.405501127243
3178,2334.087501525879
3179,2334.7775020599365
3180,2335.478502511978
3181,2336.168502807617
3182,2336.8485033512115
3183,2337.5295038223267
3184,2338.2065041065216
3185,2338.8935046195984
3186,2339.5775051116943
3187,2340.2435054779053
3188,2340.885505914688
3189,2341.509506225586
3190,2342.1225066184998
3191,2342.7275071144104
3192,2343.333507537842
3193,2343.938507795334
3194,2344.5465083122253
3195,2345.1515085697174
3196,2345.758509159088
3197,2346.374509334564
3198,2347.0015099048615
3199,2347.6195101737976
3200,2348.2335107326508
3201,2348.8475110530853
3202,2349.4675114154816
3203,2350.0985119342804
3204,2350.7315123081207
3205,2351.365512609482
3206,2352.0095131397247
3207,2352.6595134735107
3208,2353.3255138397217
3209,2353.9825143814087
3210,2354.6385147571564
3211,2355.2925152778625
3212,2355.94651556015
3213,2356.590516090393
3214,2357.225516319275
3215,2357.858516931534
3216,2358.490517139435
3217,2359.1275177001953
3218,2359.7635180950165
3219,2360.3975183963776
3220,2361.031518936157
3221,2361.6655192375183
3222,2362.2985196113586
3223,2362.9295201301575
3224,2363.559520483017
3225,2364.195520877838
3226,2364.8475213050842
3227,2365.5065217018127
3228,2366.160522222519
3229,2366.8135225772858
3230,2367.477523088455
3231,2368.1515233516693
3232,2368.8295238018036
3233,2369.501524209976
3234,2370.156524658203
3235,2370.81152510643
3236,2371.471525669098
3237,2372.1435260772705
3238,2372.834526538849
3239,2373.528527021408
3240,2374.226527452469
3241,2374.9305279254913
3242,2375.629528284073
3243,2376.3285286426544
3244,2377.0275292396545
3245,2377.7335295677185
3246,2378.448529958725
3247,2379.1435306072235
3248,2379.816530942917
3249,2380.4935314655304
3250,2381.1705317497253
3251,2381.8565323352814
3252,2382.5405325889587
3253,2383.231533050537
3254,2383.9355335235596
3255,2384.6375341415405
3256,2385.315534591675
3257,2385.9855349063873
3258,2386.6485352516174
3259,2387.299535751343
3260,2387.945536136627
3261,2388.5935366153717
3262,2389.2525370121
3263,2389.9275374412537
3264,2390.604537963867
3265,2391.3035383224487
3266,2391.9915387630463
3267,2392.6745393276215
3268,2393.344539642334
3269,2394.015540122986
3270,2394.694540500641
3271,2395.3855409622192
3272,2396.0625414848328
3273,2396.735541820526
3274,2397.4075422286987
3275,2398.0835428237915
3276,2398.756543159485
3277,2399.4125435352325
3278,2400.0665440559387
3279,2400.723544359207
3280,2401.3905448913574
3281,2402.0615453720093
3282,2402.728545665741
3283,2403.398546218872
3284,2404.0655465126038
3285,2404.7365469932556
3286,2405.395547389984
3287,2406.0495479106903
3288,2406.705548286438
3289,2407.3655486106873
3290,2408.028549194336
3291,2408.6825494766235
3292,2409.343549966812
3293,2410.0045504570007
3294,2410.6635508537292
3295,2411.316551208496
3296,2411.9675517082214
3297,2412.623552083969
3298,2413.292552471161
3299,2413.976552963257
3300,2414.6565532684326
3301,2415.335553884506
3302,2416.012554168701
3303,2416.6895546913147
3304,2417.365555047989
3305,2418.03355550766
3306,2418.701555967331
3307,2419.3705563545227
3308,2420.0305569171906
3309,2420.6925573349
3310,2421.3565576076508
3311,2422.0305581092834
3312,2422.6935584545135
3313,2423.3535590171814
3314,2424.022559404373
3315,2424.701559782028
3316,2425.3925602436066
3317,2426.070560693741
3318,2426.740561246872
3319,2427.4025616645813
3320,2428.050561904907
3321,2428.682562351227
3322,2429.299562692642
3323,2429.909563064575
3324,2430.52556347847
3325,2431.1695640087128
3326,2431.861564397812
3327,2432.5655648708344
3328,2433.2455654144287
3329,2433.934565782547
3330,2434.6365661621094
3331,2435.3445665836334
3332,2436.0385670661926
3333,2436.7375676631927
3334,2437.4465680122375
3335,2438.155568599701
3336,2438.8435690402985
3337,2439.50856924057
3338,2440.1615698337555
3339,2440.817570209503
3340,2441.4635705947876
3341,2442.106570959091
3342,2442.7545714378357
3343,2443.416571855545
3344,2444.087572336197
3345,2444.764572620392
3346,2445.432573080063
3347,2446.1065735816956
3348,2446.78657412529
3349,2447.457574367523
3350,2448.117574930191
3351,2448.7685754299164
3352,2449.4185757637024
3353,2450.064576148987
3354,2450.697576522827
3355,2451.3185770511627
3356,2451.9215774536133
3357,2452.5245776176453
3358,2453.1335780620575
3359,2453.7485785484314
3360,2454.3685789108276
3361,2454.998579263687
3362,2455.661579847336
3363,2456.3385801315308
3364,2457.03058052063
3365,2457.711580991745
3366,2458.3865814208984
3367,2459.0645818710327
3368,2459.7415823936462
3369,2460.4305827617645
3370,2461.1325833797455
3371,2461.8255836963654
3372,2462.513584136963
3373,2463.197584629059
3374,2463.8955850601196
3375,2464.600585460663
3376,2465.2935860157013
3377,2465.9855864048004
3378,2466.6805868148804
3379,2467.3855872154236
3380,2468.10258769989
3381,2468.804588317871
3382,2469.4905886650085
3383,2470.1725890636444
3384,2470.8555896282196
3385,2471.536589860916
3386,2472.2165904045105
3387,2472.873590707779
3388,2473.5185911655426
3389,2474.1625916957855
3390,2474.8125920295715
3391,2475.4835925102234
3392,2476.1565928459167
3393,2476.8355934619904
3394,2477.5115938186646
3395,2478.1805942058563
3396,2478.841594696045
3397,2479.4955949783325
3398,2480.1475954055786
3399,2480.797595977783
3400,2481.45259642601
3401,2482.1205966472626
3402,2482.8095972537994
3403,2483.513597726822
3404,2484.2115981578827
3405,2484.915598630905
3406,2485.62459897995
3407,2486.332599401474
3408,2487.037600040436
3409,2487.729600429535
3410,2488.4096007347107
3411,2489.0836012363434
3412,2489.758601665497
3413,2490.441602230072
3414,2491.1356024742126
3415,2491.826602935791
3416,2492.523603439331
3417,2493.2276039123535
3418,2493.9386043548584
3419,2494.6726047992706
3420,2495.4026052951813
3421,2496.1176056861877
3422,2496.8306062221527
3423,2497.5566067695618
3424,2498.2786071300507
3425,2498.993607521057
3426,2499.698608160019
3427,2500.404608488083
3428,2501.112608909607
3429,2501.824609518051
3430,2502.5446100234985
3431,2503.2656104564667
3432,2503.9776108264923
3433,2504.686611175537
3434,2505.391611814499
3435,2506.0826122760773
3436,2506.7746126651764
3437,2507.4556131362915
3438,2508.1346135139465
3439,2508.8216140270233
3440,2509.515614271164
3441,2510.2166147232056
3442,2510.9166152477264
3443,2511.6246156692505
3444,2512.3266162872314
3445,2513.01761674881
3446,2513.6976170539856
3447,2514.3636174201965
3448,2515.0206179618835
3449,2515.6836183071136
3450,2516.3546187877655
3451,2517.0366191864014
3452,2517.7276196479797
3453,2518.4116201400757
3454,2519.0836205482483
3455,2519.7506210803986
3456,2520.4086213111877
3457,2521.046621799469
3458,2521.677622318268
3459,2522.3076226711273
3460,2522.9386229515076
3461,2523.5686235427856
3462,2524.188623905182
3463,2524.811624288559
3464,2525.4416246414185
3465,2526.076625108719
3466,2526.715625524521
3467,2527.370625972748
3468,2528.049626350403
3469,2528.7496268749237
3470,2529.4846272468567
3471,2530.217627763748
3472,2530.9306280612946
3473,2531.650628566742
3474,2532.384629011154
3475,2533.1256296634674
3476,2533.8786301612854
3477,2534.6116304397583
3478,2535.330631017685
3479,2536.0596313476562
3480,2536.7976319789886
3481,2537.571632385254
3482,2538.3436329364777
3483,2539.087633371353
3484,2539.843633890152
3485,2540.604634284973
3486,2541.3846349716187
3487,2542.163635492325
3488,2542.9046359062195
3489,2543.647636413574
3490,2544.401636838913
3491,2545.169637441635
3492,2545.960637807846
3493,2546.7106382846832
3494,2547.4466388225555
3495,2548.190639257431
3496,2548.9316396713257
3497,2549.6766402721405
3498,2550.394640684128
3499,2551.104641199112
3500,2551.852641582489
3501,2552.6336421966553
3502,2553.4626426696777
3503,2554.3056433200836
3504,2555.1256437301636
3505,2555.898644208908
3506,2556.649644613266
3507,2557.372645139694
3508,2558.083645582199
3509,2558.770646095276
3510,2559.449646472931
3511,2560.132647037506
3512,2560.8606474399567
3513,2561.6646478176117
3514,2562.5106484889984
3515,2563.3466489315033
3516,2564.123649597168
3517,2564.85765004158
3518,2565.5546505451202
3519,2566.234650850296
3520,2566.915651321411
3521,2567.6086518764496
3522,2568.289652109146
3523,2568.981652736664
3524,2569.6936531066895
3525,2570.4466536045074
3526,2571.2656540870667
3527,2572.09965467453
3528,2572.924655199051
3529,2573.7126557826996
3530,2574.526656150818
3531,2575.337656736374
3532,2576.119657278061
3533,2576.899657726288
3534,2577.636658191681
3535,2578.399658679962
3536,2579.192659139633
3537,2580.0406596660614
3538,2580.8616602420807
3539,2581.634660720825
3540,2582.404661178589
3541,2583.1666617393494
3542,2583.9376623630524
3543,2584.715662717819
3544,2585.458663225174
3545,2586.192663669586
3546,2586.9526641368866
3547,2587.743664741516
3548,2588.565665245056
3549,2589.404665708542
3550,2590.1936662197113
3551,2590.9476668834686
3552,2591.70866727829
3553,2592.4676678180695
3554,2593.248668193817
3555,2594.0556688308716
3556,2594.8406693935394
3557,2595.5996696949005
3558,2596.374670267105
3559,2597.1426708698273
3560,2597.9176712036133
3561,2598.7146718502045
3562,2599.530672311783
3563,2600.328672885895
3564,2601.099673271179
3565,2601.886673927307
3566,2602.6706743240356
3567,2603.4696748256683
3568,2604.2246754169464
3569,2604.9676756858826
3570,2605.7256762981415
3571,2606.485676765442
3572,2607.264677286148
3573,2608.0636777877808
3574,2608.811678171158
3575,2609.5546786785126
3576,2610.2996792793274
3577,2611.0466797351837
3578,2611.7956802845
3579,2612.5246806144714
3580,2613.262681245804
3581,2614.0046815872192
3582,2614.7676820755005
3583,2615.5226826667786
3584,2616.2586829662323
3585,2617.0126836299896
3586,2617.7826840877533
3587,2618.552684545517
3588,2619.315685033798
3589,2620.0606853961945
3590,2620.8056859970093
3591,2621.5266864299774
3592,2622.2186868190765
3593,2622.9036872386932
3594,2623.5786876678467
3595,2624.242688179016
3596,2624.892688512802
3597,2625.5296890735626
3598,2626.1846895217896
3599,2626.8746898174286
3600,2627.554690361023
3601,2628.2536907196045
3602,2628.978691339493
3603,2629.707691669464
3604,2630.4176921844482
3605,2631.11669254303
3606,2631.810693025589
3607,2632.4986934661865
3608,2633.1966938972473
3609,2633.897694349289
3610,2634.605694770813
3611,2635.336695432663
3612,2636.100695848465
3613,2636.861696243286
3614,2637.591696739197
3615,2638.3266973495483
3616,2639.0566976070404
3617,2639.7846982479095
3618,2640.4986987113953
3619,2641.2176990509033
3620,2641.947699546814
3621,2642.6916999816895
3622,2643.4257004261017
3623,2644.1417009830475
3624,2644.8657014369965
3625,2645.5767018795013
3626,2646.2847023010254
3627,2646.9817028045654
3628,2647.690703392029
3629,2648.4057037830353
3630,2649.143704175949
3631,2649.856704711914
3632,2650.5617051124573
3633,2651.273705482483
3634,2651.9957060813904
3635,2652.704706430435
3636,2653.391706943512
3637,2654.0767073631287
3638,2654.7637078762054
3639,2655.4687082767487
3640,2656.178708791733
3641,2656.891709089279
3642,2657.62370967865
3643,2658.3807101249695
3644,2659.1547107696533
3645,2659.8857111930847
3646,2660.585711479187
3647,2661.2757120132446
3648,2661.9497125148773
3649,2662.6367127895355
3650,2663.328713417053
3651,2664.0077137947083
3652,2664.689714193344
3653,2665.376714706421
3654,2666.0857150554657
3655,2666.8147156238556
3656,2667.526715993881
3657,2668.240716457367
3658,2668.9557168483734
3659,2669.6807174682617
3660,2670.4027178287506
3661,2671.107718229294
3662,2671.8247187137604
3663,2672.5507192611694
3664,2673.2857196331024
3665,2673.9957201480865
3666,2674.701720714569
3667,2675.4137210845947
3668,2676.1267216205597
3669,2676.836722135544
3670,2677.539722442627
3671,2678.233722925186
3672,2678.94172334671
3673,2679.671723842621
3674,2680.424724340439
3675,2681.147724866867
3676,2681.8707251548767
3677,2682.608725786209
3678,2683.3687262535095
3679,2684.1357266902924
3680,2684.8727271556854
3681,2685.6117277145386
3682,2686.3527281284332
3683,2687.106728553772
3684,2687.8447291851044
3685,2688.5897295475006
3686,2689.3507301807404
3687,2690.118730545044
3688,2690.8787310123444
3689,2691.6167316436768
3690,2692.3807320594788
3691,2693.1477324962616
3692,2693.8867330551147
3693,2694.6117334365845
3694,2695.3497338294983
3695,2696.096734523773
3696,2696.871734857559
3697,2697.6317353248596
3698,2698.3977358341217
3699,2699.1677362918854
3700,2699.928736925125
3701,2700.6447372436523
3702,2701.33273768425
3703,2702.0067381858826
3704,2702.673738718033
3705,2703.341739177704
3706,2704.046739578247
3707,2704.800740003586
3708,2705.60574054718
3709,2706.42574095726
3710,2707.2087416648865
3711,2707.987741947174
3712,2708.7257425785065
3713,2709.4317429065704
3714,2710.1097433567047
3715,2710.7827439308167
3716,2711.460744380951
3717,2712.1457448005676
3718,2712.8467452526093
3719,2713.5597455501556
3720,2714.287746191025
3721,2715.016746520996
3722,2715.7417471408844
3723,2716.480747461319
3724,2717.2287480831146
3725,2717.9717485904694
3726,2718.6907489299774
3727,2719.417749404907
3728,2720.159749984741
3729,2720.9067504405975
3730,2721.6427507400513
3731,2722.358751296997
3732,2723.0817518234253
3733,2723.8427522182465
3734,2724.636752843857
3735,2725.4147531986237
3736,2726.1897537708282
3737,2726.9427542686462
3738,2727.6917548179626
3739,2728.4157552719116
3740,2729.128755569458
3741,2729.855756044388
3742,2730.610756635666
3743,2731.3827571868896
3744,2732.1387577056885
3745,2732.911758184433
3746,2733.6827585697174
3747,2734.460759162903
3748,2735.226759672165
3749,2735.987760066986
3750,2736.764760494232
3751,2737.5347611904144
3752,2738.304761648178
3753,2739.0497620105743
3754,2739.803762435913
3755,2740.550763130188
3756,2741.3077635765076
3757,2742.0437638759613
3758,2742.7967643737793
3759,2743.5727648735046
3760,2744.361765384674
3761,2745.1387660503387
3762,2745.8847663402557
3763,2746.6427669525146
3764,2747.41676735878
3765,2748.232768058777
3766,2749.0157685279846
3767,2749.776768922806
3768,2750.5517694950104
3769,2751.3437700271606
3770,2752.1217703819275
3771,2752.8767709732056
3772,2753.652771472931
3773,2754.432771921158
3774,2755.2317724227905
3775,2755.9957728385925
3776,2756.7457733154297
3777,2757.5067739486694
3778,2758.287774324417
3779,2759.1007750034332
3780,2759.8637754917145
3781,2760.617775917053
3782,2761.3837764263153
3783,2762.1527769565582
3784,2762.920777320862
3785,2763.6827778816223
3786,2764.4597783088684
3787,2765.2287788391113
3788,2766.0227794647217
3789,2766.782779932022
3790,2767.5317804813385
3791,2768.2957808971405
3792,2769.0787813663483
3793,2769.862781763077
3794,2770.627782344818
3795,2771.4197828769684
3796,2772.229783296585
3797,2773.046783924103
3798,2773.8057844638824
3799,2774.563784837723
3800,2775.3247854709625
3801,2776.095785856247
3802,2776.858786344528
3803,2777.609786748886
3804,2778.365787267685
3805,2779.0967876911163
3806,2779.804788351059
3807,2780.4987885951996
3808,2781.1847891807556
3809,2781.872789621353
3810,2782.5957901477814
3811,2783.3137905597687
3812,2784.0327908992767
3813,2784.77179145813
3814,2785.518791913986
3815,2786.269792318344
3816,2786.993792772293
3817,2787.733793258667
3818,2788.475793838501
3819,2789.2227942943573
3820,2789.955794811249
3821,2790.6857953071594
3822,2791.424795627594
3823,2792.1877961158752
3824,2792.93279671669
3825,2793.6777970790863
3826,2794.441797733307
3827,2795.1987981796265
3828,2795.929798603058
3829,2796.6437990665436
3830,2797.35879945755
3831,2798.08579993248
3832,2798.808800458908
3833,2799.5278010368347
3834,2800.2578015327454
3835,2800.99880194664
3836,2801.7448024749756
3837,2802.4768028259277
3838,2803.2218034267426
3839,2803.9748039245605
3840,2804.7288043498993
3841,2805.466804742813
3842,2806.1968052387238
3843,2806.9248056411743
3844,2807.6588060855865
3845,2808.3738067150116
3846,2809.091807126999
3847,2809.8218076229095
3848,2810.566807985306
3849,2811.3148086071014
3850,2812.053808927536
3851,2812.806809425354
3852,2813.5668098926544
3853,2814.3298103809357
3854,2815.0598108768463
3855,2815.788811445236
3856,2816.518811941147
3857,2817.2748124599457
3858,2818.003812789917
3859,2818.714813232422
3860,2819.427813768387
3861,2820.1268141269684
3862,2820.8388147354126
3863,2821.5468151569366
3864,2822.2548155784607
3865,2822.945816040039
3866,2823.6178164482117
3867,2824.2918169498444
3868,2824.958817243576
3869,2825.6358177661896
3870,2826.3228182792664
3871,2827.036818742752
3872,2827.766819000244
3873,2828.4708194732666
3874,2829.1858201026917
3875,2829.918820619583
3876,2830.680820941925
3877,2831.448821544647
3878,2832.1828219890594
3879,2832.913822412491
3880,2833.6538228988647
3881,2834.421823501587
3882,2835.1888239383698
3883,2835.924824476242
3884,2836.660824775696
3885,2837.3898253440857
3886,2838.125825881958
3887,2838.8438262939453
3888,2839.571826696396
3889,2840.329827308655
3890,2841.1218276023865
3891,2841.880828142166
3892,2842.621828556061
3893,2843.376829147339
3894,2844.124829530716
3895,2844.8738300800323
3896,2845.5988306999207
3897,2846.329831123352
3898,2847.0768315792084
3899,2847.8268320560455
3900,2848.554832458496
3901,2849.29683303833
3902,2850.049833536148
3903,2850.8358340263367
3904,2851.609834432602
3905,2852.3588349819183
3906,2853.1188354492188
3907,2853.9098360538483
3908,2854.693836450577
3909,2855.4368369579315
3910,2856.1868374347687
3911,2856.944837808609
3912,2857.7118384838104
3913,2858.4588389396667
3914,2859.187839269638
3915,2859.9338397979736
3916,2860.6978402137756
3917,2861.4798407554626
3918,2862.2518413066864
3919,2863.0168418884277
3920,2863.805842399597
3921,2864.60484290123
3922,2865.3888432979584
3923,2866.161843776703
3924,2866.956844329834
3925,2867.76584482193
3926,2868.584845304489
3927,2869.3528459072113
3928,2870.10684633255
3929,2870.8828468322754
3930,2871.68984746933
3931,2872.522847890854
3932,2873.3058483600616
3933,2874.097848892212
3934,2874.890849351883
3935,2875.711849927902
3936,2876.4928505420685
3937,2877.279850959778
3938,2878.0978515148163
3939,2878.912852048874
3940,2879.7268526554108
3941,2880.503853082657
3942,2881.2898535728455
3943,2882.088854074478
3944,2882.8748545646667
3945,2883.6308550834656
3946,2884.422855615616
3947,2885.212856054306
3948,2886.0168566703796
3949,2886.7848570346832
3950,2887.5398576259613
3951,2888.309858083725
3952,2889.0928585529327
3953,2889.8388590812683
3954,2890.5868594646454
3955,2891.36186003685
3956,2892.1508605480194
3957,2892.9408609867096
3958,2893.697861433029
3959,2894.4818620681763
3960,2895.291862487793
3961,2896.1118631362915
3962,2896.900863647461
3963,2897.7008640766144
3964,2898.4778645038605
3965,2899.2038650512695
3966,2899.9068655967712
3967,2900.6038658618927
3968,2901.283866405487
3969,2901.9488668441772
3970,2902.6258673667908
3971,2903.3108677864075
3972,2903.9798681735992
3973,2904.6558685302734
3974,2905.329869031906
3975,2905.9868693351746
3976,2906.647869825363
3977,2907.33287024498
3978,2908.047870874405
3979,2908.7568712234497
3980,2909.4728717803955
3981,2910.185872077942
3982,2910.90887260437
3983,2911.6258730888367
3984,2912.354873418808
3985,2913.1048741340637
3986,2913.8748745918274
3987,2914.644875049591
3988,2915.379875421524
3989,2916.107876062393
3990,2916.8338763713837
3991,2917.5688769817352
3992,2918.3138773441315
3993,2919.0398778915405
3994,2919.7618782520294
3995,2920.4938788414
3996,2921.258879184723
3997,2922.050879716873
3998,2922.8588802814484
3999,2923.631880760193
4000,2924.400881290436
4001,2925.168881893158
4002,2925.931882381439
4003,2926.6788828372955
4004,2927.4038832187653
4005,2928.133883714676
4006,2928.883884191513
4007,2929.6488847732544
4008,2930.434885263443
4009,2931.1978857517242
4010,2931.9618861675262
4011,2932.720886707306
4012,2933.4768872261047
4013,2934.2258875370026
4014,2934.963888168335
4015,2935.6928884983063
4016,2936.4318890571594
4017,2937.1788895130157
4018,2937.939889907837
4019,2938.6878905296326
4020,2939.4468910694122
4021,2940.213891506195
4022,2940.975891828537
4023,2941.7258925437927
4024,2942.468892812729
4025,2943.221893310547
4026,2943.9678938388824
4027,2944.7048943042755
4028,2945.426894903183
4029,2946.134895324707
4030,2946.831895828247
4031,2947.511896133423
4032,2948.1998965740204
4033,2948.897897005081
4034,2949.6208975315094
4035,2950.366898059845
4036,2951.1078984737396
4037,2951.846899032593
4038,2952.576899290085
4039,2953.3088998794556
4040,2954.0309002399445
4041,2954.736900806427
4042,2955.4409012794495
4043,2956.142901659012
4044,2956.851902246475
4045,2957.5599026679993
4046,2958.2749030590057
4047,2958.9999034404755
4048,2959.7399039268494
4049,2960.4899044036865
4050,2961.2159049510956
4051,2961.9429054260254
4052,2962.6559059619904
4053,2963.3559062480927
4054,2964.051906824112
4055,2964.7479071617126
4056,2965.4589076042175
4057,2966.19490814209
4058,2966.9109086990356
4059,2967.607908964157
4060,2968.3029096126556
4061,2968.97890996933
4062,2969.6379103660583
4063,2970.293910741806
4064,2970.932911157608
4065,2971.5649116039276
4066,2972.185912132263
4067,2972.8149123191833
4068,2973.4659128189087
4069,2974.1239132881165
4070,2974.797913789749
4071,2975.4809141159058
4072,2976.185914516449
4073,2976.9029150009155
4074,2977.5999155044556
4075,2978.287915945053
4076,2979.0079164505005
4077,2979.775916814804
4078,2980.5549173355103
4079,2981.326917886734
4080,2982.0609183311462
4081,2982.80291891098
4082,2983.5779192447662
4083,2984.389919757843
4084,2985.221920490265
4085,2986.0169208049774
4086,2986.821921348572
4087,2987.6379220485687
4088,2988.4659225940704
4089,2989.2189230918884
4090,2989.9379234313965
4091,2990.6509239673615
4092,2991.320924282074
4093,2991.9699246883392
4094,2992.6029250621796
4095,2993.2619256973267
4096,2994.0479261875153
4097,2994.9309265613556
4098,2995.8419272899628
4099,2996.703927755356
4100,2997.509928226471
4101,2998.26792883873
4102,2999.0299293994904
4103,2999.7899298667908
4104,3000.5449302196503
4105,3001.2649307250977
4106,3002.00093126297
4107,3002.8249316215515
4108,3003.655932188034
4109,3004.4839327335358
4110,3005.2739334106445
4111,3006.0329337120056
4112,3006.80793428421
4113,3007.634934902191
4114,3008.497935295105
4115,3009.364935874939
4116,3010.16193652153
4117,3010.984936952591
4118,3011.8049376010895
4119,3012.6269381046295
4120,3013.450938463211
4121,3014.235939025879
4122,3015.0219395160675
4123,3015.831940174103
4124,3016.679940700531
4125,3017.5329411029816
4126,3018.397941827774
4127,3019.2429423332214
4128,3020.0329427719116
4129,3020.813943386078
4130,3021.5869438648224
4131,3022.3509442806244
4132,3023.1019446849823
4133,3023.818945169449
4134,3024.5239458084106
4135,3025.2539460659027
4136,3025.981946706772
4137,3026.758947134018
4138,3027.565947532654
4139,3028.3669481277466
4140,3029.128948688507
4141,3029.908949136734
4142,3030.703949689865
4143,3031.525950193405
4144,3032.3579506874084
4145,3033.1369512081146
4146,3033.909951686859
4147,3034.6859521865845
4148,3035.4809527397156
4149,3036.3109533786774
4150,3037.138953924179
4151,3037.9529542922974
4152,3038.7959549427032
4153,3039.6569554805756
4154,3040.5209560394287
4155,3041.3439564704895
4156,3042.1699571609497
4157,3043.0169575214386
4158,3043.855958223343
4159,3044.6829586029053
4160,3045.4539592266083
4161,3046.2069597244263
4162,3046.9679601192474
4163,3047.784960746765
4164,3048.7809612751007
4165,3049.7309617996216
4166,3050.5929625034332
4167,3051.462963104248
4168,3052.366963624954
4169,3053.233964204788
4170,3054.06196475029
4171,3054.8509652614594
4172,3055.661965608597
4173,3056.4899661540985
4174,3057.338966846466
4175,3058.17196726799
4176,3059.011967897415
4177,3059.8539683818817
4178,3060.6789689064026
4179,3061.459969520569
4180,3062.262969970703
4181,3063.0889704227448
4182,3063.952970981598
4183,3064.820971727371
4184,3065.629972219467
4185,3066.450972557068
4186,3067.25097322464
4187,3068.056973695755
4188,3068.8459742069244
4189,3069.6419746875763
4190,3070.4469752311707
4191,3071.2869758605957
4192,3072.1209762096405
4193,3072.916976928711
4194,3073.7329773902893
4195,3074.572977781296
4196,3075.4509785175323
4197,3076.2669789791107
4198,3077.05597949028
4199,3077.8509800434113
4200,3078.659980535507
4201,3079.487981081009
4202,3080.2819814682007
4203,3081.1149821281433
4204,3081.95698261261
4205,3082.804983139038
4206,3083.617983818054
4207,3084.4209842681885
4208,3085.236984729767
4209,3086.087985277176
4210,3086.9559857845306
4211,3087.77698636055
4212,3088.5939869880676
4213,3089.423987388611
4214,3090.27698802948
4215,3091.127988576889
4216,3091.9419889450073
4217,3092.7529895305634
4218,3093.5639901161194
4219,3094.394990682602
4220,3095.201991081238
4221,3095.996991634369
4222,3096.8199923038483
4223,3097.674992799759
4224,3098.580993413925
4225,3099.3989939689636
4226,3100.2209944725037
4227,3101.0549948215485
4228,3101.906995534897
4229,3102.725996017456
4230,3103.508996486664
4231,3104.311996936798
4232,3105.133997440338
4233,3105.9779980182648
4234,3106.772998571396
4235,3107.559998989105
4236,3108.376999616623
4237,3109.2350001335144
4238,3110.0780007839203
4239,3110.864001274109
4240,3111.65900182724
4241,3112.4540021419525
4242,3113.2520027160645
4243,3114.0080032348633
4244,3114.7630038261414
4245,3115.54700422287
4246,3116.37100481987
4247,3117.208005428314
4248,3118.028005838394
4249,3118.858006477356
4250,3119.6870069503784
4251,3120.5060074329376
4252,3121.266007900238
4253,3122.0150084495544
4254,3122.774008989334
4255,3123.5660095214844
4256,3124.3750100135803
4257,3125.188010454178
4258,3126.007010936737
4259,3126.846011400223
4260,3127.6490120887756
4261,3128.449012517929
4262,3129.2650129795074
4263,3130.114013671875
4264,3130.955014228821
4265,3131.7390146255493
4266,3132.541015148163
4267,3133.3430156707764
4268,3134.1490161418915
4269,3134.926016807556
4270,3135.6940171718597
4271,3136.4690177440643
4272,3137.2640182971954
4273,3138.061018705368
4274,3138.8390192985535
4275,3139.6330196857452
4276,3140.4460203647614
4277,3141.2820208072662
4278,3142.0750212669373
4279,3142.8930218219757
4280,3143.740022420883
4281,3144.573022842407
4282,3145.3520233631134
4283,3146.1360239982605
4284,3146.9320244789124
4285,3147.739024877548
4286,3148.510025501251
4287,3149.2890260219574
4288,3150.1190264225006
4289,3150.977026939392
4290,3151.793027639389
4291,3152.5690281391144
4292,3153.3600285053253
4293,3154.180029153824
4294,3155.001029729843
4295,3155.7860300540924
4296,3156.592030763626
4297,3157.398031234741
4298,3158.2010316848755
4299,3158.979032278061
4300,3159.786032676697
4301,3160.610033273697
4302,3161.4680337905884
4303,3162.2840342521667
4304,3163.11603474617
4305,3163.9630353450775
4306,3164.8620359897614
4307,3165.701036453247
4308,3166.50203704834
4309,3167.313037633896
4310,3168.127038002014
4311,3168.9580385684967
4312,3169.748039007187
4313,3170.548039674759
4314,3171.351040124893
4315,3172.144040584564
4316,3172.8850412368774
4317,3173.6120417118073
4318,3174.3490421772003
4319,3175.0940425395966
4320,3175.8550429344177
4321,3176.5970435142517
4322,3177.315043926239
4323,3178.039044380188
4324,3178.752044916153
4325,3179.4770452976227
4326,3180.205045938492
4327,3180.9490463733673
4328,3181.6840467453003
4329,3182.4100472927094
4330,3183.1490478515625
4331,3183.9210481643677
4332,3184.7140486240387
4333,3185.4720492362976
4334,3186.219049692154
4335,3186.9780502319336
4336,3187.7610507011414
4337,3188.5590512752533
4338,3189.332051753998
4339,3190.1210522651672
4340,3190.9270527362823
4341,3191.7320532798767
4342,3192.510053873062
4343,3193.26105427742
4344,3194.0340547561646
4345,3194.8330552577972
4346,3195.6920557022095
4347,3196.5030562877655
4348,3197.3110568523407
4349,3198.1340572834015
4350,3198.980057954788
4351,3199.8400585651398
4352,3200.641058921814
4353,3201.4580595493317
4354,3202.282060146332
4355,3203.133060693741
4356,3203.9570610523224
4357,3204.7620615959167
4358,3205.580062150955
4359,3206.4000627994537
4360,3207.172063112259
4361,3207.951063632965
4362,3208.7280642986298
4363,3209.534064769745
4364,3210.353065252304
4365,3211.173065662384
4366,3212.011066198349
4367,3212.8610668182373
4368,3213.6790673732758
4369,3214.4880678653717
4370,3215.295068502426
4371,3216.107069015503
4372,3216.8910694122314
4373,3217.680069923401
4374,3218.4950704574585
4375,3219.3220710754395
4376,3220.1100714206696
4377,3220.893072128296
4378,3221.6820726394653
4379,3222.4750730991364
4380,3223.240073442459
4381,3223.995074033737
4382,3224.759074449539
4383,3225.533075094223
4384,3226.282075405121
4385,3227.0220758914948
4386,3227.7810764312744
4387,3228.5760769844055
4388,3229.389077425003
4389,3230.1650779247284
4390,3230.9440784454346
4391,3231.7400789260864
4392,3232.5490794181824
4393,3233.337080001831
4394,3234.108080625534
4395,3234.888081073761
4396,3235.657081604004
4397,3236.3930819034576
4398,3237.1380825042725
4399,3237.8890829086304
4400,3238.6660833358765
4401,3239.4260840415955
4402,3240.1870844364166
4403,3240.9640848636627
4404,3241.777085542679
4405,3242.5790860652924
4406,3243.363086462021
4407,3244.1830871105194
4408,3244.9970874786377
4409,3245.821088075638
4410,3246.595088481903
4411,3247.385089159012
4412,3248.160089492798
4413,3248.92609000206
4414,3249.663090467453
4415,3250.4090909957886
4416,3251.1860914230347
4417,3252.0160920619965
4418,3252.826092481613
4419,3253.6190931797028
4420,3254.4430935382843
4421,3255.289094209671
4422,3256.0910947322845
4423,3256.8730952739716
4424,3257.6770956516266
4425,3258.471096277237
4426,3259.249096632004
4427,3260.0190970897675
4428,3260.823097705841
4429,3261.648098230362
4430,3262.501098871231
4431,3263.319099187851
4432,3264.1470997333527
4433,3264.9611003398895
4434,3265.748100757599
4435,3266.514101266861
4436,3267.2971019744873
4437,3268.0861024856567
4438,3268.8661029338837
4439,3269.6311032772064
4440,3270.427103996277
4441,3271.243104457855
4442,3272.0301048755646
4443,3272.7891054153442
4444,3273.5471057891846
4445,3274.330106496811
4446,3275.1451070308685
4447,3275.9391074180603
4448,3276.727108001709
4449,3277.5261085033417
4450,3278.3351089954376
4451,3279.1011095046997
4452,3279.8821098804474
4453,3280.6801104545593
4454,3281.481111049652
4455,3282.253111600876
4456,3283.0501120090485
4457,3283.865112543106
4458,3284.6621129512787
4459,3285.4481134414673
4460,3286.24911403656
4461,3287.0561146736145
4462,3287.848114967346
4463,3288.6151156425476
4464,3289.4031159877777
4465,3290.224116563797
4466,3291.0411171913147
4467,3291.8211176395416
4468,3292.623118162155
4469,3293.430118560791
4470,3294.230119228363
4471,3295.0051198005676
4472,3295.7961201667786
4473,3296.585120677948
4474,3297.365121126175
4475,3298.1241216659546
4476,3298.8831222057343
4477,3299.668122768402
4478,3300.4861233234406
4479,3301.2801237106323
4480,3302.090124130249
4481,3302.9101247787476
4482,3303.7331252098083
4483,3304.519125699997
4484,3305.3261263370514
4485,3306.1531269550323
4486,3306.981127500534
4487,3307.764127969742
4488,3308.5581283569336
4489,3309.3721289634705
4490,3310.190129518509
4491,3310.9731299877167
4492,3311.765130519867
4493,3312.569130897522
4494,3313.364131450653
4495,3314.119132041931
4496,3314.884132385254
4497,3315.6731328964233
4498,3316.498133420944
4499,3317.3181340694427
4500,3318.089134454727
4501,3318.8751349449158
4502,3319.654135465622
4503,3320.436136007309
4504,3321.203136444092
4505,3321.997137069702
4506,3322.8181376457214
4507,3323.657138109207
4508,3324.4511387348175
4509,3325.266139268875
4510,3326.099139690399
4511,3326.921140193939
4512,3327.717140674591
4513,3328.5221412181854
4514,3329.3071417808533
4515,3330.0381422042847
4516,3330.7491426467896
4517,3331.458143234253
4518,3332.1811435222626
4519,3332.972144126892
4520,3333.7741446495056
4521,3334.5381450653076
4522,3335.27414560318
4523,3336.0451459884644
4524,3336.854146718979
4525,3337.6321470737457
4526,3338.398147583008
4527,3339.1891481876373
4528,3339.9761486053467
4529,3340.795149087906
4530,3341.575149536133
4531,3342.3361501693726
4532,3343.1051506996155
4533,3343.9081511497498
4534,3344.737151622772
4535,3345.540152311325
4536,3346.2921526432037
4537,3347.0491530895233
4538,3347.8091535568237
4539,3348.5441541671753
4540,3349.2601544857025
4541,3349.966155052185
4542,3350.6811554431915
4543,3351.388155937195
4544,3352.112156391144
4545,3352.8731570243835
4546,3353.668157339096
4547,3354.466157913208
4548,3355.2271585464478
4549,3355.9941589832306
4550,3356.7611594200134
4551,3357.520159959793
4552,3358.263160467148
4553,3359.008160829544
4554,3359.7441613674164
4555,3360.486161708832
4556,3361.2481622695923
4557,3362.0271627902985
4558,3362.787163257599
4559,3363.542163848877
4560,3364.2881643772125
4561,3365.040164709091
4562,3365.8031651973724
4563,3366.5661656856537
4564,3367.310166120529
4565,3368.0471665859222
4566,3368.789167165756
4567,3369.5511677265167
4568,3370.3321681022644
4569,3371.1191687583923
4570,3371.8701691627502
4571,3372.6091697216034
4572,3373.340170145035
4573,3374.075170516968
4574,3374.8161709308624
4575,3375.5551714897156
4576,3376.307172060013
4577,3377.0591723918915
4578,3377.8251729011536
4579,3378.617173433304
4580,3379.4041740894318
4581,3380.1611745357513
4582,3380.916174888611
4583,3381.6671755313873
4584,3382.4071760177612
4585,3383.134176492691
4586,3383.8651769161224
4587,3384.6131772994995
4588,3385.3741779327393
4589,3386.1321783065796
4590,3386.8771789073944
4591,3387.6221792697906
4592,3388.380179643631
4593,3389.146180152893
4594,3389.9191806316376
4595,3390.6691813468933
4596,3391.421181678772
4597,3392.1701822280884
4598,3392.9151825904846
4599,3393.6451830863953
4600,3394.374183654785
4601,3395.1001839637756
4602,3395.838184595108
4603,3396.5871851444244
4604,3397.3201854228973
4605,3398.0611860752106
4606,3398.8141865730286
4607,3399.5651869773865
4608,3400.309187412262
4609,3401.06018781662
4610,3401.812188386917
4611,3402.5591888427734
4612,3403.2861893177032
4613,3403.9901897907257
4614,3404.6891901493073
4615,3405.377190589905
4616,3406.0541911125183
4617,3406.7341916561127
4618,3407.4011919498444
4619,3408.054192304611
4620,3408.7031927108765
4621,3409.364193201065
4622,3410.0441937446594
4623,3410.7671942710876
4624,3411.5181946754456
4625,3412.2531950473785
4626,3413.0031955242157
4627,3413.7851960659027
4628,3414.5871965885162
4629,3415.383197069168
4630,3416.1511976718903
4631,3416.8991980552673
4632,3417.6671986579895
4633,3418.482199192047
4634,3419.3271996974945
4635,3420.211200237274
4636,3421.015200853348
4637,3421.821201324463
4638,3422.6022017002106
4639,3423.378202199936
4640,3424.1242027282715
4641,3424.856203317642
4642,3425.6002037525177
4643,3426.408204317093
4644,3427.3302047252655
4645,3428.2602055072784
4646,3429.1352059841156
4647,3429.995206594467
4648,3430.860207080841
4649,3431.698207616806
4650,3432.5182082653046
4651,3433.2822086811066
4652,3434.053209066391
4653,3434.850209712982
4654,3435.715210199356
4655,3436.6042108535767
4656,3437.4512112140656
4657,3438.2702119350433
4658,3439.1322124004364
4659,3440.0392129421234
4660,3440.891213417053
4661,3441.679214000702
4662,3442.456214427948
4663,3443.213215112686
4664,3443.977215528488
4665,3444.74121594429
4666,3445.494216442108
4667,3446.277216911316
4668,3447.0952174663544
4669,3447.915218114853
4670,3448.7042186260223
4671,3449.5232191085815
4672,3450.3482196331024
4673,3451.1802201271057
4674,3451.9662206172943
4675,3452.751221179962
4676,3453.5462217330933
4677,3454.353222131729
4678,3455.1292226314545
4679,3455.9292232990265
4680,3456.7592236995697
4681,3457.6002242565155
4682,3458.400224685669
4683,3459.203225374222
4684,3459.995225906372
4685,3460.760226249695
4686,3461.4892268180847
4687,3462.2242271900177
4688,3462.978227853775
4689,3463.716228246689
4690,3464.4722287654877
4691,3465.235229253769
4692,3466.012229681015
4693,3466.7532300949097
4694,3467.500230550766
4695,3468.2592310905457
4696,3469.0492317676544
4697,3469.828232049942
4698,3470.5692327022552
4699,3471.3112330436707
4700,3472.063233613968
4701,3472.853234052658
4702,3473.620234489441
4703,3474.3652350902557
4704,3475.125235557556
4705,3475.9042360782623
4706,3476.679236650467
4707,3477.429237127304
4708,3478.172237634659
4709,3478.9342379570007
4710,3479.7142384052277
4711,3480.511239051819
4712,3481.2892394065857
4713,3482.0352399349213
4714,3482.7902405261993
4715,3483.5392410755157
4716,3484.3102414608
4717,3485.0602419376373
4718,3485.805242538452
4719,3486.570242881775
4720,3487.360243320465
4721,3488.1522438526154
4722,3488.913244485855
4723,3489.691244840622
4724,3490.4672453403473
4725,3491.2502460479736
4726,3492.010246515274
4727,3492.7492468357086
4728,3493.5022473335266
4729,3494.3062479496
4730,3495.0822484493256
4731,3495.829248905182
4732,3496.590249300003
4733,3497.359249830246
4734,3498.125250339508
4735,3498.8742508888245
4736,3499.613251209259
4737,3500.3652517795563
4738,3501.1252522468567
4739,3501.863252878189
4740,3502.5892531871796
4741,3503.337253808975
4742,3504.1192541122437
4743,3504.9142546653748
4744,3505.664255142212
4745,3506.4232556819916
4746,3507.172256231308
4747,3507.9182567596436
4748,3508.6432571411133
4749,3509.354257583618
4750,3510.070258140564
4751,3510.797258615494
4752,3511.526258945465
4753,3512.242259502411
4754,3512.9462599754333
4755,3513.6522603034973
4756,3514.371260881424
4757,3515.1122612953186
4758,3515.8442616462708
4759,3516.5572621822357
4760,3517.283262729645
4761,3518.0262632369995
4762,3518.7752635478973
4763,3519.5032641887665
4764,3520.2522644996643
4765,3521.010265111923
4766,3521.7812654972076
4767,3522.533266067505
4768,3523.297266483307
4769,3524.0482671260834
4770,3524.7942674160004
4771,3525.5192680358887
4772,3526.253268480301
4773,3527.0132689476013
4774,3527.7872693538666
4775,3528.5452699661255
4776,3529.3012704849243
4777,3530.084270954132
4778,3530.888271331787
4779,3531.670271873474
4780,3532.412272453308
4781,3533.165272951126
4782,3533.942273378372
4783,3534.7442739009857
4784,3535.5002744197845
4785,3536.273274898529
4786,3537.056275367737
4787,3537.8432760238647
4788,3538.5892763137817
4789,3539.339276790619
4790,3540.121277332306
4791,3540.934278011322
4792,3541.7192783355713
4793,3542.4822788238525
4794,3543.2722795009613
4795,3544.0572798252106
4796,3544.8392803668976
4797,3545.574280977249
4798,3546.304281234741
4799,3547.0372817516327
4800,3547.8062822818756
4801,3548.5942828655243
4802,3549.3422832489014
4803,3550.09628367424
4804,3550.8452842235565
4805,3551.592284679413
4806,3552.3232851028442
4807,3553.026285648346
4808,3553.7222862243652
4809,3554.4082865715027
4810,3555.1172869205475
4811,3555.852287530899
4812,3556.6252880096436
4813,3557.4082884788513
4814,3558.1572890281677
4815,3558.902289390564
4816,3559.644289970398
4817,3560.411290407181
4818,3561.1402909755707
4819,3561.874291419983
4820,3562.6122918128967
4821,3563.380292415619
4822,3564.1382927894592
4823,3564.894293308258
4824,3565.6682937145233
4825,3566.470294237137
4826,3567.267294883728
4827,3568.0212953090668
4828,3568.7782957553864
4829,3569.5282962322235
4830,3570.285296678543
4831,3571.022297143936
4832,3571.752297639847
4833,3572.512298107147
4834,3573.342298746109
4835,3574.185299396515
4836,3575.0012998580933
4837,3575.827300310135
4838,3576.6433007717133
4839,3577.4353013038635
4840,3578.18630194664
4841,3578.9513022899628
4842,3579.73530292511
4843,3580.5323033332825
4844,3581.2953038215637
4845,3582.050304412842
4846,3582.838304758072
4847,3583.659305334091
4848,3584.4903059005737
4849,3585.2763063907623
4850,3586.06130695343
4851,3586.8363075256348
4852,3587.6043078899384
4853,3588.3303084373474
4854,3589.0533089637756
4855,3589.795309305191
4856,3590.5603098869324
4857,3591.344310283661
4858,3592.0853106975555
4859,3592.8273112773895
4860,3593.5693118572235
4861,3594.327312231064
4862,3595.0863127708435
4863,3595.8203132152557
4864,3596.5713136196136
4865,3597.35231423378
4866,3598.129314661026
4867,3598.895315170288
4868,3599.6393156051636
4869,3600.3973162174225
4870,3601.1613166332245
4871,3601.9243171215057
4872,3602.6563177108765
4873,3603.3893179893494
4874,3604.1283185482025
4875,3604.903319120407
4876,3605.667319536209
4877,3606.404320001602
4878,3607.1223204135895
4879,3607.8303208351135
4880,3608.560321331024
4881,3609.3123219013214
4882,3610.1043224334717
4883,3610.865322828293
4884,3611.61732339859
4885,3612.384323835373
4886,3613.158324241638
4887,3613.929324865341
4888,3614.68332529068
4889,3615.4373257160187
4890,3616.188326358795
4891,3616.9453268051147
4892,3617.690327167511
4893,3618.4413278102875
4894,3619.212328195572
4895,3620.0013287067413
4896,3620.8223292827606
4897,3621.6283297538757
4898,3622.4323303699493
4899,3623.244330883026
4900,3624.0523314476013
4901,3624.8103318214417
4902,3625.546332359314
4903,3626.2873327732086
4904,3627.031333208084
4905,3627.789333820343
4906,3628.5193343162537
4907,3629.248334646225
4908,3629.9923350811005
4909,3630.7363357543945
4910,3631.4973361492157
4911,3632.271336555481
4912,3633.040337085724
4913,3633.7943375110626
4914,3634.5233380794525
4915,3635.2393386363983
4916,3635.9763391017914
4917,3636.725339412689
4918,3637.4603400230408
4919,3638.2153403759003
4920,3638.9813408851624
4921,3639.7733414173126
4922,3640.5563418865204
4923,3641.3033423423767
4924,3642.052342891693
4925,3642.822343349457
4926,3643.68634390831
4927,3644.5763444900513
4928,3645.404345035553
4929,3646.2533457279205
4930,3647.109346151352
4931,3647.936346769333
4932,3648.7463471889496
4933,3649.550347805023
4934,3650.3633482456207
4935,3651.173348903656
4936,3651.9413492679596
4937,3652.714349746704
4938,3653.494350194931
4939,3654.2723507881165
4940,3655.0223512649536
4941,3655.7633516788483
4942,3656.5013523101807
4943,3657.2583527565002
4944,3658.01535320282
4945,3658.752353668213
4946,3659.4843542575836
4947,3660.226354598999
4948,3660.9743552207947
4949,3661.75035572052
4950,3662.5053560733795
4951,3663.2723565101624
4952,3664.073357105255
4953,3664.8933577537537
4954,3665.6743581295013
4955,3666.4223585128784
4956,3667.1793591976166
4957,3667.9173595905304
4958,3668.6533601284027
4959,3669.3633604049683
4960,3670.0703608989716
4961,3670.7643613815308
4962,3671.443361759186
4963,3672.163362264633
4964,3672.930362701416
4965,3673.667363166809
4966,3674.427363872528
4967,3675.210364341736
4968,3676.0063648223877
4969,3676.7843651771545
4970,3677.538365840912
4971,3678.302366256714
4972,3679.071366786957
4973,3679.831367254257
4974,3680.560367822647
4975,3681.2893681526184
4976,3682.037368774414
4977,3682.8113691806793
4978,3683.578369617462
4979,3684.3273701667786
4980,3685.0963706970215
4981,3685.9163711071014
4982,3686.7373716831207
4983,3687.5223722457886
4984,3688.3343727588654
4985,3689.162373304367
4986,3689.9723737239838
4987,3690.738374233246
4988,3691.4923746585846
4989,3692.2513751983643
4990,3693.034375667572
4991,3693.805376291275
4992,3694.5653767585754
4993,3695.3573772907257
4994,3696.176377773285
4995,3696.996378183365
4996,3697.7843787670135
4997,3698.5803792476654
4998,3699.366379737854
4999,3700.1273803710938
5000,3700.890380859375
5001,3701.6533813476562
5002,3702.42138171196
5003,3703.1433823108673
5004,3703.8513827323914
5005,3704.563383102417
5006,3705.276383638382
5007,3705.976384162903
5008,3706.66038441658
5009,3707.3383848667145
5010,3708.0163853168488
5011,3708.695385694504
5012,3709.4033863544464
5013,3710.123386621475
5014,3710.8563871383667
5015,3711.576387643814
5016,3712.2903881073
5017,3712.9763884544373
5018,3713.6463890075684
5019,3714.31738948822
5020,3715.013389825821
5021,3715.7303903102875
5022,3716.4573907852173
5023,3717.2123913764954
5024,3717.9753918647766
5025,3718.767392396927
5026,3719.5823929309845
5027,3720.3463933467865
5028,3721.1103937625885
5029,3721.883394241333
5030,3722.681394815445
5031,3723.45539522171
5032,3724.274395942688
5033,3725.0953962802887
5034,3725.9383969306946
5035,3726.7443974018097
5036,3727.552397966385
5037,3728.3783984184265
5038,3729.193398952484
5039,3729.9793994426727
5040,3730.802400112152
5041,3731.6204006671906
5042,3732.4304010868073
5043,3733.2174015045166
5044,3734.0154020786285
5045,3734.8104026317596
5046,3735.612403154373
5047,3736.395403623581
5048,3737.206404209137
5049,3738.0324046611786
5050,3738.85840511322
5051,3739.657405614853
5052,3740.4724061489105
5053,3741.2854068279266
5054,3742.1024072170258
5055,3742.8714077472687
5056,3743.6564083099365
5057,3744.4384088516235
5058,3745.251409292221
5059,3746.0324099063873
5060,3746.8014104366302
5061,3747.587410926819
5062,3748.393411397934
5063,3749.1764118671417
5064,3749.938412427902
5065,3750.7094128131866
5066,3751.4814133644104
5067,3752.296413898468
5068,3753.0674142837524
5069,3753.8204147815704
5070,3754.580415248871
5071,3755.3584158420563
5072,3756.146416425705
5073,3756.9274168014526
5074,3757.718417406082
5075,3758.5314178466797
5076,3759.3624184131622
5077,3760.1304190158844
5078,3760.8924193382263
5079,3761.665419816971
5080,3762.4424204826355
5081,3763.224420785904
5082,3764.0204215049744
5083,3764.8004219532013
5084,3765.6094224452972
5085,3766.363422870636
5086,3767.108423471451
5087,3767.867423772812
5088,3768.6504244804382
5089,3769.430424928665
5090,3770.226425409317
5091,3771.022425889969
5092,3771.8344264030457
5093,3772.6114268302917
5094,3773.36642742157
5095,3774.129427909851
5096,3774.9104285240173
5097,3775.6774289608
5098,3776.4234294891357
5099,3777.176429748535
5100,3777.9314303398132
5101,3778.700430870056
5102,3779.456431388855
5103,3780.191431760788
5104,3780.9524323940277
5105,3781.742432832718
5106,3782.5654332637787
5107,3783.3524339199066
5108,3784.1514344215393
5109,3784.924434900284
5110,3785.6524353027344
5111,3786.358435869217
5112,3787.058436155319
5113,3787.75843667984
5114,3788.4814372062683
5115,3789.195437669754
5116,3789.8914380073547
5117,3790.590438604355
5118,3791.308439016342
5119,3792.064439535141
5120,3792.8504400253296
5121,3793.57644033432
5122,3794.279440879822
5123,3794.9744412899017
5124,3795.6604418754578
5125,3796.339442253113
5126,3797.028442621231
5127,3797.7224431037903
5128,3798.4294435977936
5129,3799.1264441013336
5130,3799.8224444389343
5131,3800.510444879532
5132,3801.177445411682
5133,3801.8344457149506
5134,3802.5004460811615
5135,3803.174446582794
5136,3803.8654470443726
5137,3804.5784475803375
5138,3805.3134479522705
5139,3806.0474483966827
5140,3806.794448852539
5141,3807.5674493312836
5142,3808.3554499149323
5143,3809.1344504356384
5144,3809.920450925827
5145,3810.700451374054
5146,3811.4894518852234
5147,3812.2834525108337
5148,3813.0634529590607
5149,3813.826453447342
5150,3814.57945394516
5151,3815.331454515457
5152,3816.0754549503326
5153,3816.8124554157257
5154,3817.5554559230804
