,ECG_peaks
0,0.0
1,0.8159620761871338
2,1.6179590225219727
3,2.42693829536438
4,3.235917806625366
5,4.043899774551392
6,4.848390340805054
7,5.652881145477295
8,6.437920331954956
9,7.2449047565460205
10,8.043909072875977
11,8.81298828125
12,9.580072164535522
13,10.31623363494873
14,11.004514455795288
15,11.711748123168945
16,12.513745069503784
17,13.204020977020264
18,14.055893182754517
19,14.847914934158325
20,15.652904510498047
21,16.4299635887146
22,17.236948013305664
23,18.028969764709473
24,18.82996916770935
25,19.612015962600708
26,20.3880774974823
27,21.176109313964844
28,21.95516347885132
29,22.747185230255127
30,23.539206981658936
31,24.33821153640747
32,25.165146112442017
33,26.003053188323975
34,26.845947980880737
35,27.682857513427734
36,28.581612825393677
37,29.48036813735962
38,30.317277669906616
39,31.164162397384644
40,32.00206971168518
41,32.79708409309387
42,33.592098236083984
43,34.39908266067505
44,35.20606708526611
45,35.983126401901245
46,36.814050912857056
47,37.65195822715759
48,38.45395517349243
49,39.26592707633972
50,40.09286165237427
51,40.922788858413696
52,41.71680545806885
53,42.54972529411316
54,43.358704566955566
55,44.11880612373352
56,44.915815591812134
57,45.79861068725586
58,46.67442321777344
59,47.55023550987244
60,48.40510034561157
61,49.26395535469055
62,50.12281012535095
63,50.985655069351196
64,51.85049510002136
65,52.721818685531616
66,53.59314250946045
67,54.68541431427002
68,55.465964794158936
69,56.24651527404785
70,57.09140491485596
71,57.89739203453064
72,58.741284132003784
73,59.6689670085907
74,60.628570318222046
75,61.54727578163147
76,62.40812563896179
77,63.252017974853516
78,64.10788011550903
79,64.9507749080658
80,65.72883152961731
81,66.55377125740051
82,67.36773824691772
83,68.14778995513916
84,68.90789151191711
85,69.65103530883789
86,70.26350545883179
87,70.76375603675842
88,71.26400661468506
89,71.77373337745667
90,72.46001935005188
91,73.26600623130798
92,73.82062101364136
93,74.63658308982849
94,75.16326761245728
95,75.8166356086731
96,76.62860774993896
97,77.24806046485901
98,77.7298572063446
99,78.24457144737244
100,78.95779013633728
101,79.5942006111145
102,80.2206358909607
103,80.87899160385132
104,81.58921766281128
105,82.31839656829834
106,83.06154036521912
107,84.23062038421631
108,85.42862820625305
109,86.24459028244019
110,87.05656218528748
111,87.87651419639587
112,88.68848609924316
113,89.490483045578
114,90.59572243690491
115,91.83462810516357
116,93.58425807952881
117,94.6176769733429
118,95.31593298912048
119,96.05508685112
120,96.81917834281921
121,97.60521507263184
122,98.381276845932
123,99.16930866241455
124,99.95734024047852
125,100.57080817222595
126,101.46956324577332
127,102.56582522392273
128,103.5613386631012
129,104.88204002380371
130,105.41071963310242
131,106.0511200428009
132,106.65461277961731
133,107.36583638191223
134,107.84464049339294
135,108.3663375377655
136,109.00574040412903
137,109.75786185264587
138,110.72145533561707
139,111.91746807098389
140,112.75537514686584
141,113.53642439842224
142,114.39128923416138
143,115.51448392868042
144,116.52894997596741
145,117.6671073436737
146,118.52496457099915
147,119.50950574874878
148,120.51698923110962
149,159.0780110359192
150,159.8090078830719
151,160.57800436019897
152,161.3480007648468
153,162.13099718093872
154,162.9069938659668
155,163.6549904346466
156,164.3439872264862
157,165.04898405075073
158,165.8459804058075
159,166.60397696495056
160,167.4049735069275
161,168.21896982192993
162,169.0269660949707
163,169.84296250343323
164,170.63095879554749
165,171.32295560836792
166,172.0079526901245
167,172.67394948005676
168,173.3489465713501
169,174.10194301605225
170,174.82593989372253
171,175.57893633842468
172,176.3059332370758
173,176.9969301223755
174,177.68292689323425
175,178.4319236278534
176,179.18692016601562
177,179.9709165096283
178,180.76391291618347
179,181.5169095993042
180,182.23990631103516
181,182.98990297317505
182,183.7608995437622
183,184.55289578437805
184,185.33789229393005
185,186.11888885498047
186,186.93188500404358
187,187.7388813495636
188,188.6313774585724
189,189.5238733291626
190,190.36686944961548
191,190.9198670387268
192,191.42986464500427
193,191.87986278533936
194,192.89685821533203
195,193.5238552093506
196,194.27285194396973
197,195.23484754562378
198,195.89984464645386
199,196.95183968544006
200,197.74583625793457
201,198.5248327255249
202,199.24082946777344
203,199.95182609558105
204,200.9598217010498
205,202.2618157863617
206,203.52781009674072
207,204.52480554580688
208,205.8927993774414
209,206.52479648590088
210,207.00079441070557
211,207.55479192733765
212,208.0097897052765
213,208.68978667259216
214,209.3467836380005
215,210.03178071975708
216,211.13277554512024
217,211.86577224731445
218,212.60076904296875
219,213.35276556015015
220,214.05476236343384
221,214.7887589931488
222,215.52475571632385
223,216.2697525024414
224,216.99174904823303
225,217.73074579238892
226,218.48374247550964
227,219.24073886871338
228,220.00173544883728
229,220.69673228263855
230,221.37672924995422
231,222.0767261981964
232,222.80372285842896
233,223.5697193145752
234,224.3527159690857
235,225.10971236228943
236,225.8637089729309
237,226.59770560264587
238,227.32170248031616
239,228.06669902801514
240,228.82969570159912
241,229.62569189071655
242,230.41868829727173
243,231.21068477630615
244,231.97568130493164
245,232.70567798614502
246,233.41067481040955
247,234.10167169570923
248,234.82666850090027
249,235.60766506195068
250,236.43766117095947
251,237.2446575164795
252,238.03665399551392
253,238.7776505947113
254,239.5036473274231
255,240.22864413261414
256,240.97264075279236
257,241.7476372718811
258,242.52663373947144
259,243.2736303806305
260,243.99862694740295
261,244.72862362861633
262,245.50062012672424
263,246.29861664772034
264,247.09861302375793
265,247.89760947227478
266,248.65760588645935
267,249.37160277366638
268,250.1175992488861
269,250.8415961265564
270,251.52559304237366
271,252.26158952713013
272,252.9355866909027
273,253.67358326911926
274,254.43257975578308
275,255.1805763244629
276,255.91057300567627
277,256.63056993484497
278,257.3445665836334
279,258.0375635623932
280,258.7005605697632
281,259.3555574417114
282,259.99955463409424
283,260.6375517845154
284,261.26054883003235
285,261.8635461330414
286,262.481543302536
287,263.0965406894684
288,263.6985378265381
289,264.2995352745056
290,264.92153239250183
291,265.54352951049805
292,266.1725265979767
293,266.80452394485474
294,267.45252084732056
295,268.1235179901123
296,268.796514749527
297,269.48151183128357
298,270.1805086135864
299,270.8925054073334
300,271.61550211906433
301,272.3294987678528
302,273.0454955101013
303,273.7524924278259
304,274.4754891395569
305,275.20548582077026
306,275.9654824733734
307,276.7474789619446
308,277.5144753456116
309,278.29247188568115
310,279.0824682712555
311,279.84246492385864
312,280.6154613494873
313,281.39245796203613
314,282.14945435523987
315,282.8964509963989
316,283.643447637558
317,284.38844442367554
318,285.1394410133362
319,285.9024374485016
320,286.68843388557434
321,287.48643040657043
322,288.27542662620544
323,289.06442308425903
324,289.838419675827
325,290.5404164791107
326,291.379412651062
327,292.02640986442566
328,292.8734059333801
329,293.54740285873413
330,294.4203989505768
331,295.1233956813812
332,295.9793918132782
333,296.7033886909485
334,297.58938455581665
335,298.28538155555725
336,299.1253776550293
337,299.8403744697571
338,300.6883707046509
339,301.3823673725128
340,302.2233636379242
341,303.0253601074219
342,303.8013565540314
343,304.5933530330658
344,305.3873493671417
345,306.10334610939026
346,306.9283423423767
347,307.62733912467957
348,308.4823353290558
349,309.1893322467804
350,310.04232835769653
351,310.73832511901855
352,311.6023211479187
353,312.30131816864014
354,313.18631410598755
355,313.989310503006
356,314.82330656051636
357,315.65830278396606
358,316.5182991027832
359,317.33829522132874
360,318.1642916202545
361,318.97428798675537
362,319.7722842693329
363,320.53528094291687
364,321.3182773590088
365,322.1242735385895
366,322.91527009010315
367,323.71926641464233
368,324.5382626056671
369,325.3272590637207
370,326.10425567626953
371,326.90425205230713
372,327.71824836730957
373,328.5492446422577
374,329.3862407207489
375,330.2232370376587
376,331.0772330760956
377,331.94622921943665
378,332.83322525024414
379,333.72922110557556
380,334.6192171573639
381,335.5152130126953
382,336.37920928001404
383,337.2322053909302
384,338.1082012653351
385,338.9951972961426
386,339.8391935825348
387,340.6681897640228
388,341.5201859474182
389,342.3631820678711
390,343.1811783313751
391,343.99917459487915
392,344.8371708393097
393,345.64916729927063
394,346.4661636352539
395,347.2981598377228
396,348.1381559371948
397,348.97615218162537
398,349.8331482410431
399,350.7001442909241
400,351.572140455246
401,352.4491364955902
402,353.3321325778961
403,354.22212839126587
404,355.10912442207336
405,355.9991204738617
406,356.9031162261963
407,357.8141121864319
408,358.70710825920105
409,359.56610441207886
410,360.42010045051575
411,361.3020963668823
412,362.19209241867065
413,363.05708861351013
414,363.9120845794678
415,364.7820806503296
416,365.64007687568665
417,366.4720730781555
418,367.3280692100525
419,368.20806527137756
420,369.06606125831604
421,369.95605731010437
422,370.85105323791504
423,371.7660491466522
424,372.674045085907
425,373.5660409927368
426,374.45103693008423
427,375.2960331439972
428,376.12102937698364
429,376.9660255908966
430,377.7920217514038
431,378.6220180988312
432,379.42801451683044
433,380.22801089286804
434,381.0160071849823
435,381.8140037059784
436,382.6489999294281
437,383.4819960594177
438,384.29599237442017
439,385.11698865890503
440,385.8989851474762
441,386.6859817504883
442,387.4749779701233
443,388.2559745311737
444,389.01097106933594
445,389.7429678440094
446,390.4389646053314
447,391.13296151161194
448,391.82195830345154
449,392.4999554157257
450,393.2089521884918
451,393.91194891929626
452,394.6799454689026
453,395.3979423046112
454,396.1759386062622
455,396.89893555641174
456,397.72093176841736
457,398.51592803001404
458,399.3179244995117
459,400.0759210586548
460,400.8719174861908
461,401.7089138031006
462,402.604909658432
463,403.51890540122986
464,404.4069015979767
465,405.2638976573944
466,406.1068937778473
467,406.9658899307251
468,407.81088614463806
469,408.6488823890686
470,409.50887846946716
471,410.3858745098114
472,411.22787070274353
473,412.074866771698
474,412.95186281204224
475,413.777859210968
476,414.6138553619385
477,415.46585154533386
478,416.31584763526917
479,417.1618437767029
480,418.03483986854553
481,418.92383575439453
482,419.8128318786621
483,420.70882773399353
484,421.59182381629944
485,422.4498198032379
486,423.31981587409973
487,424.2018120288849
488,425.0908079147339
489,425.98580384254456
490,426.86579990386963
491,427.75979590415955
492,428.6497919559479
493,429.5157878398895
494,430.35578417778015
495,431.2007803916931
496,432.0697762966156
497,432.89677262306213
498,433.75776863098145
499,434.6237647533417
500,435.45776104927063
501,436.2937572002411
502,437.14375352859497
503,437.9877495765686
504,438.8247458934784
505,439.6837420463562
506,440.54373812675476
507,441.3947341442108
508,442.2427303791046
509,443.105726480484
510,443.9817225933075
511,444.8557186126709
512,445.74371457099915
513,446.6337103843689
514,447.50670647621155
515,448.35870265960693
516,449.2206988334656
517,450.0796949863434
518,450.9256911277771
519,451.7806873321533
520,452.6646831035614
521,453.5386793613434
522,454.3866753578186
523,455.2346715927124
524,456.09466767311096
525,456.9286639690399
526,457.75066018104553
527,458.60065627098083
528,459.45565247535706
529,460.28364872932434
530,461.14264488220215
531,461.99264097213745
532,462.81863737106323
533,463.6586334705353
534,464.49262976646423
535,465.33662581443787
536,466.1986219882965
537,467.0306181907654
538,467.8896143436432
539,468.73461055755615
540,469.5706067085266
541,470.38060307502747
542,471.2165992259979
543,472.0495955944061
544,472.86759185791016
545,473.69158816337585
546,474.56658411026
547,475.44158029556274
548,476.29857635498047
549,477.1355724334717
550,477.9825687408447
551,478.8275649547577
552,479.64356112480164
553,480.4905574321747
554,481.33755350112915
555,482.15054988861084
556,482.98954606056213
557,483.8565421104431
558,484.7125382423401
559,485.5695343017578
560,486.45153045654297
561,487.32252645492554
562,488.16152262687683
563,489.0045187473297
564,489.8545150756836
565,490.70551109313965
566,491.5395073890686
567,492.3935034275055
568,493.2504997253418
569,494.0934958457947
570,494.9194920063019
571,495.77748823165894
572,496.6334843635559
573,497.4614806175232
574,498.2964768409729
575,499.1464729309082
576,499.994469165802
577,500.82846546173096
578,501.6764614582062
579,502.55245757102966
580,503.4384536743164
581,504.29144978523254
582,505.1464457511902
583,505.99144196510315
584,506.81743836402893
585,507.6334345340729
586,508.464430809021
587,509.3294270038605
588,510.17442321777344
589,511.00041937828064
590,511.83941555023193
591,512.6824116706848
592,513.5114080905914
593,514.331404209137
594,515.1834003925323
595,516.0303966999054
596,516.8543930053711
597,517.6833891868591
598,518.5283854007721
599,519.3843815326691
600,520.2263777256012
601,521.0523738861084
602,521.8993701934814
603,522.7403662204742
604,523.5613625049591
605,524.3883588314056
606,525.2363550662994
607,526.0763511657715
608,526.9013473987579
609,527.7553436756134
610,528.6063396930695
611,529.4683358669281
612,530.300332069397
613,531.1493282318115
614,532.0103242397308
615,532.8573205471039
616,533.6983168125153
617,534.5673127174377
618,535.4183089733124
619,536.2823050022125
620,537.0613014698029
621,537.8062980175018
622,538.5372948646545
623,539.2862913608551
624,540.0752878189087
625,540.8672842979431
626,541.6592807769775
627,542.4602770805359
628,543.2832734584808
629,544.0972697734833
630,544.8742661476135
631,545.6242628097534
632,546.3692593574524
633,547.120255947113
634,547.8712525367737
635,548.6412491798401
636,549.4002456665039
637,550.1922421455383
638,550.9732384681702
639,551.7622349262238
640,552.524231672287
641,553.2812280654907
642,554.0572247505188
643,554.7922213077545
644,555.4882180690765
645,556.2002148628235
646,556.8642120361328
647,557.5282089710236
648,558.1882059574127
649,558.8252031803131
650,559.4562001228333
651,560.0711975097656
652,560.6721947193146
653,561.2841918468475
654,561.9071891307831
655,562.5271863937378
656,563.1471834182739
657,563.7701807022095
658,564.424177646637
659,565.0981748104095
660,565.8061714172363
661,566.4881684780121
662,567.1641652584076
663,567.872162103653
664,568.5691590309143
665,569.2561559677124
666,569.9331529140472
667,570.6261496543884
668,571.3171465396881
669,571.9921436309814
670,572.6801404953003
671,573.3801372051239
672,574.0691342353821
673,574.7381310462952
674,575.4221279621124
675,576.1201248168945
676,576.823121547699
677,577.5141184329987
678,578.21111536026
679,578.945111989975
680,579.670108795166
681,580.3971054553986
682,581.140102148056
683,581.8770987987518
684,582.610095500946
685,583.3300921916962
686,584.069088935852
687,584.7940855026245
688,585.5200822353363
689,586.262079000473
690,587.0210754871368
691,587.7720720767975
692,588.5230686664581
693,589.2980651855469
694,590.0810616016388
695,590.8340582847595
696,591.5980548858643
697,592.3610513210297
698,593.1140480041504
699,593.8640446662903
700,594.6400411128998
701,595.4100375175476
702,596.1740341186523
703,596.9400305747986
704,597.7060272693634
705,598.4470238685608
706,599.1900205612183
707,599.9530169963837
708,600.7120137214661
709,601.4620101451874
710,602.2100069522858
711,602.9770033359528
712,603.7220001220703
713,604.472996711731
714,605.2409930229187
715,606.0099897384644
716,606.771986246109
717,607.5159828662872
718,608.2789793014526
719,609.0209760665894
720,609.7659726142883
721,610.5039694309235
722,611.2479660511017
723,611.9919626712799
724,612.738959312439
725,613.505955696106
726,614.2499523162842
727,615.0129489898682
728,615.7569456100464
729,616.5419421195984
730,617.3219385147095
731,618.099935054779
732,618.8539316654205
733,619.6109280586243
734,620.3679246902466
735,621.1279213428497
736,621.9199175834656
737,622.7359139919281
738,623.5829100608826
739,624.447906255722
740,625.3029024600983
741,626.1668984889984
742,627.0368945598602
743,627.895890712738
744,628.751886844635
745,629.6148829460144
746,630.507878780365
747,631.4098746776581
748,632.3288705348969
749,633.2698664665222
750,634.1898622512817
751,635.1008579730988
752,636.0048539638519
753,636.9038498401642
754,637.7858459949493
755,638.6678419113159
756,639.5548379421234
757,640.4378340244293
758,641.3308298587799
759,642.2418258190155
760,643.1418216228485
761,644.0248177051544
762,644.895813703537
763,645.7368099689484
764,646.5718061923981
765,647.414802312851
766,648.2667984962463
767,649.1047947406769
768,649.9287910461426
769,650.7927870750427
770,651.6677832603455
771,652.536779165268
772,653.3777754306793
773,654.27277135849
774,655.1847672462463
775,656.0777633190155
776,656.9717590808868
777,657.8617551326752
778,658.7377512454987
779,659.5977473258972
780,660.467743396759
781,661.3497393131256
782,662.250735282898
783,663.1567311286926
784,664.0667271614075
785,664.9797229766846
786,665.9137187004089
787,666.8587143421173
788,667.7847101688385
789,668.6927061080933
790,669.5617022514343
791,670.4226982593536
792,671.2896943092346
793,672.170690536499
794,673.0246865749359
795,673.866682767868
796,674.7236788272858
797,675.5926749706268
798,676.4106712341309
799,677.2396674156189
800,678.0996634960175
801,678.9586596488953
802,679.7836558818817
803,680.6346521377563
804,681.507648229599
805,682.37464427948
806,683.2676401138306
807,684.148636341095
808,685.0236322879791
809,685.8986282348633
810,686.7546243667603
811,687.6166205406189
812,688.4566168785095
813,689.3176128864288
814,690.2016088962555
815,691.0916049480438
816,691.9956007003784
817,692.9035966396332
818,693.7445929050446
819,694.5705890655518
820,695.414585351944
821,696.243581533432
822,697.0495779514313
823,697.868574142456
824,698.740570306778
825,699.5955662727356
826,700.4355626106262
827,701.3575584888458
828,702.2705543041229
829,703.1195504665375
830,704.0125463008881
831,704.9085423946381
832,705.8065383434296
833,706.6785342693329
834,707.5755302906036
835,708.465526342392
836,709.3725221157074
837,710.3255178928375
838,711.2445137500763
839,712.1585094928741
840,713.090505361557
841,714.0025012493134
842,714.9294970035553
843,715.8324928283691
844,716.7244889736176
845,717.5814850330353
846,718.467481136322
847,719.3624770641327
848,720.24547290802
849,721.090469121933
850,721.9054653644562
851,722.7674615383148
852,723.660457611084
853,724.500453710556
854,725.3534498214722
855,726.1944460868835
856,726.9844424724579
857,727.7654390335083
858,728.5704352855682
859,729.3404319286346
860,730.092428445816
861,730.8924248218536
862,731.704421043396
863,732.4934175014496
864,733.3144137859344
865,734.192409992218
866,735.0874059200287
867,735.997401714325
868,736.9143974781036
869,737.7783937454224
870,738.6373898983002
871,739.5133857727051
872,740.4273817539215
873,741.3193776607513
874,742.170373916626
875,743.04336977005
876,743.926365852356
877,744.8013620376587
878,745.6303582191467
879,746.491354227066
880,747.3863501548767
881,748.29234623909
882,749.1613421440125
883,750.0573382377625
884,750.955334186554
885,751.8043303489685
886,752.6703262329102
887,753.5413224697113
888,754.4043185710907
889,755.3013143539429
890,756.2423102855682
891,757.1963057518005
892,758.1133017539978
893,759.0512974262238
894,759.9782931804657
895,760.8262894153595
896,761.66428565979
897,762.4992818832397
898,763.354278087616
899,764.1992743015289
900,765.0992701053619
901,766.0222659111023
902,766.9252619743347
903,767.7912578582764
904,768.691253900528
905,769.5982496738434
906,770.4412460327148
907,771.2712421417236
908,772.1282384395599
909,772.9722344875336
910,773.7892308235168
911,774.6522269248962
912,775.549222946167
913,776.4232189655304
914,777.2792150974274
915,778.1892108917236
916,779.0772068500519
917,779.9442028999329
918,780.8131990432739
919,781.6951949596405
920,782.5761911869049
921,783.4611871242523
922,784.3011832237244
923,785.174179315567
924,786.063175201416
925,786.9531712532043
926,787.8201673030853
927,788.7111632823944
928,789.6291592121124
929,790.5311551094055
930,791.3881511688232
931,792.3271470069885
932,793.2921426296234
933,794.2161383628845
934,795.1071343421936
935,795.9961304664612
936,796.9071261882782
937,797.7731223106384
938,798.6761181354523
939,799.6181139945984
940,800.5071098804474
941,801.3811058998108
942,802.2711019515991
943,803.1370980739594
944,803.9570944309235
945,804.7930905818939
946,805.6270868778229
947,806.4230833053589
948,807.2580795288086
949,808.1200754642487
950,808.9510717391968
951,809.7870678901672
952,810.6540641784668
953,811.5060601234436
954,812.3240566253662
955,813.165052652359
956,814.0260488986969
957,814.8720450401306
958,815.7280411720276
959,816.5850372314453
960,817.4410333633423
961,818.2470297813416
962,819.0780260562897
963,819.9460220336914
964,820.7770183086395
965,821.6310143470764
966,822.5020105838776
967,823.3720066547394
968,824.1750028133392
969,824.9999992847443
970,825.8479952812195
971,826.6589915752411
972,827.4549880027771
973,828.3169841766357
974,829.2179801464081
975,830.0639762878418
976,830.9549722671509
977,831.8549680709839
978,832.7979638576508
979,833.6829600334167
980,834.6119556427002
981,835.5549514293671
982,836.4769473075867
983,837.3449432849884
984,838.2379393577576
985,839.1459352970123
986,840.0749309062958
987,841.0059268474579
988,841.8829228878021
989,842.8029186725616
990,843.7379143238068
991,844.6619102954865
992,845.5249063968658
993,846.410902261734
994,847.3198981285095
995,848.2378940582275
996,849.1008901596069
997,849.9908862113953
998,850.8848822116852
999,851.7178783416748
1000,852.5828745365143
1001,853.4668705463409
1002,854.3218665122986
1003,855.2158625125885
1004,856.1158585548401
1005,857.0108544826508
1006,857.8828504085541
1007,858.7978463172913
1008,859.7098422050476
1009,860.6578378677368
1010,861.5568337440491
1011,862.4468297958374
1012,863.346825838089
1013,864.2458217144012
1014,865.0668179988861
1015,865.9338140487671
1016,866.8378100395203
1017,867.7358059883118
1018,868.6248018741608
1019,869.550797700882
1020,870.4947934150696
1021,871.4207892417908
1022,872.3077852725983
1023,873.2347810268402
1024,874.0807771682739
1025,874.8967735767365
1026,875.7267696857452
1027,876.5757658481598
1028,877.4077620506287
1029,878.226758480072
1030,879.0737545490265
1031,879.938750743866
1032,880.8207466602325
1033,881.6737427711487
1034,882.5537388324738
1035,883.4457347393036
1036,884.3437306880951
1037,885.2167267799377
1038,886.0667231082916
1039,886.9467189311981
1040,887.8427150249481
1041,888.7817106246948
1042,889.7307064533234
1043,890.6547021865845
1044,891.5266983509064
1045,892.4056942462921
1046,893.2946903705597
1047,894.1206865310669
1048,894.9176828861237
1049,895.7396793365479
1050,896.5786755084991
1051,897.4006717205048
1052,898.206668138504
1053,899.0486643314362
1054,899.9276602268219
1055,900.7766563892365
1056,901.6406526565552
1057,902.5006487369537
1058,903.3246450424194
1059,904.1386413574219
1060,904.9726374149323
1061,905.7996337413788
1062,906.6006300449371
1063,907.4346263408661
1064,908.2836225032806
1065,909.1366186141968
1066,909.9716148376465
1067,910.842610836029
1068,911.7306070327759
1069,912.6196029186249
1070,913.472599029541
1071,914.3305952548981
1072,915.1775913238525
1073,915.9895875453949
1074,916.7895839214325
1075,917.638580083847
1076,918.4825763702393
1077,919.3085725307465
1078,920.1525688171387
1079,921.0055649280548
1080,921.8345611095428
1081,922.643557548523
1082,923.4825537204742
1083,924.3455498218536
1084,925.1615462303162
1085,925.9785425662994
1086,926.8285386562347
1087,927.6885347366333
1088,928.5205309391022
1089,929.3565270900726
1090,930.1995234489441
1091,931.0075197219849
1092,931.7915160655975
1093,932.6115124225616
1094,933.4435086250305
1095,934.297504901886
1096,935.1465010643005
1097,936.0394968986511
1098,936.9774928092957
1099,937.8974885940552
1100,938.7934844493866
1101,939.6744804382324
1102,940.5954763889313
1103,941.452472448349
1104,942.2714688777924
1105,943.1114649772644
1106,943.9464612007141
1107,944.7414577007294
1108,945.536453962326
1109,946.3724503517151
1110,947.2404463291168
1111,948.0694425106049
1112,948.9414386749268
1113,949.8264346122742
1114,950.6604309082031
1115,951.5024271011353
1116,952.4194228649139
1117,953.3454186916351
1118,954.1964149475098
1119,955.0214111804962
1120,955.8684072494507
1121,956.7544033527374
1122,957.6453993320465
1123,958.4913954734802
1124,959.3203916549683
1125,960.1763877868652
1126,961.0883836746216
1127,962.03337931633
1128,962.9103753566742
1129,963.7653715610504
1130,964.6463675498962
1131,965.5573635101318
1132,966.4763593673706
1133,967.3363554477692
1134,968.1923515796661
1135,969.0813474655151
1136,969.9763433933258
1137,970.8263397216797
1138,971.6633358001709
1139,972.5063319206238
1140,973.3713281154633
1141,974.2563240528107
1142,975.1103203296661
1143,975.9483165740967
1144,976.8043127059937
1145,977.7103085517883
1146,978.6023044586182
1147,979.4803004264832
1148,980.350296497345
1149,981.2522923946381
1150,982.1842882633209
1151,983.1092841625214
1152,983.9942800998688
1153,984.8942759037018
1154,985.8152718544006
1155,986.7242677211761
1156,987.6152637004852
1157,988.5142595767975
1158,989.4422554969788
1159,990.374251127243
1160,991.279247045517
1161,992.1942429542542
1162,993.1312386989594
1163,994.0582344532013
1164,994.944230556488
1165,995.8292264938354
1166,996.738222360611
1167,997.6662182807922
1168,998.607213973999
1169,999.5432097911835
1170,1000.4422056674957
1171,1001.330201625824
1172,1002.2511975765228
1173,1003.1741933822632
1174,1004.0951890945435
1175,1004.9501852989197
1176,1005.8141813278198
1177,1006.7001774311066
1178,1007.6041731834412
1179,1008.4881691932678
1180,1009.3671653270721
1181,1010.2731611728668
1182,1011.2111570835114
1183,1012.1591527462006
1184,1013.046148777008
1185,1013.913144826889
1186,1014.7611408233643
1187,1015.5811371803284
1188,1016.3981335163116
1189,1017.2271296977997
1190,1018.0451259613037
1191,1018.9441220760345
1192,1019.8641178607941
1193,1020.7981135845184
1194,1021.7011096477509
1195,1022.6151053905487
1196,1023.5781011581421
1197,1024.5290968418121
1198,1025.4680924415588
1199,1026.3310885429382
1200,1027.177084684372
1201,1028.044080734253
1202,1028.924076795578
1203,1029.8190727233887
1204,1030.744068622589
1205,1031.6060647964478
1206,1032.4610607624054
1207,1033.3520567417145
1208,1034.277052640915
1209,1035.2330484390259
1210,1036.1940438747406
1211,1037.1250398159027
1212,1038.0270357131958
1213,1038.931031703949
1214,1039.8540275096893
1215,1040.7830231189728
1216,1041.7190189361572
1217,1042.6150150299072
1218,1043.5040109157562
1219,1044.412006855011
1220,1045.328002691269
1221,1046.2289986610413
1222,1047.0909945964813
1223,1047.9469907283783
1224,1048.7879869937897
1225,1049.6819829940796
1226,1050.626978635788
1227,1051.5839743614197
1228,1052.5329701900482
1229,1053.4299659729004
1230,1054.3199620246887
1231,1055.2549576759338
1232,1056.2229533195496
1233,1057.1839489936829
1234,1058.0939450263977
1235,1058.9849410057068
1236,1059.883936882019
1237,1060.808932542801
1238,1061.7329285144806
1239,1062.6519243717194
1240,1063.5429203510284
1241,1064.4319162368774
1242,1065.3699119091034
1243,1066.3039078712463
1244,1067.2389035224915
1245,1068.1678993701935
1246,1069.0648953914642
1247,1069.9498913288116
1248,1070.8548872470856
1249,1071.7828829288483
1250,1072.7218787670135
1251,1073.6548745632172
1252,1074.5408704280853
1253,1075.4308664798737
1254,1076.3458623886108
1255,1077.2598581314087
1256,1078.1708540916443
1257,1079.0758500099182
1258,1079.9748458862305
1259,1080.852842092514
1260,1081.7328379154205
1261,1082.6648337841034
1262,1083.6018295288086
1263,1084.5228254795074
1264,1085.4198212623596
1265,1086.2948174476624
1266,1087.1508135795593
1267,1087.9798097610474
1268,1088.8388059139252
1269,1089.7338018417358
1270,1090.6297976970673
1271,1091.5327937602997
1272,1092.409789800644
1273,1093.2617859840393
1274,1094.0907821655273
1275,1094.9607782363892
1276,1095.8437740802765
1277,1096.7287702560425
1278,1097.6317660808563
1279,1098.5147621631622
1280,1099.3727581501007
1281,1100.2237544059753
1282,1101.1117503643036
1283,1102.0217461585999
1284,1102.9457421302795
1285,1103.8977377414703
1286,1104.854733467102
1287,1105.757729291916
1288,1106.6587252616882
1289,1107.5767211914062
1290,1108.5127170085907
1291,1109.4507126808167
1292,1110.3677084445953
1293,1111.2507045269012
1294,1112.107700586319
1295,1112.9666967391968
1296,1113.8606927394867
1297,1114.7626886367798
1298,1115.6656844615936
1299,1116.5456805229187
1300,1117.4146766662598
1301,1118.2706727981567
1302,1119.145668745041
1303,1120.049664735794
1304,1120.9576606750488
1305,1121.878656387329
1306,1122.7976522445679
1307,1123.7006483078003
1308,1124.5606443881989
1309,1125.4066405296326
1310,1126.247636795044
1311,1127.0926327705383
1312,1127.9636290073395
1313,1128.867624759674
1314,1129.7626206874847
1315,1130.6386168003082
1316,1131.5376126766205
1317,1132.4426085948944
1318,1133.3436045646667
1319,1134.2436006069183
1320,1135.114596605301
1321,1135.9865925312042
1322,1136.856588602066
1323,1137.728584766388
1324,1138.608580827713
1325,1139.475576877594
1326,1140.315572977066
1327,1141.1755690574646
1328,1142.0665650367737
1329,1142.945561170578
1330,1143.8315570354462
1331,1144.6665532588959
1332,1145.4905495643616
1333,1146.3375458717346
1334,1147.1785418987274
1335,1148.0325381755829
1336,1148.8895342350006
1337,1149.765530347824
1338,1150.599526643753
1339,1151.4345228672028
1340,1152.2775189876556
1341,1153.1485149860382
1342,1154.0375108718872
1343,1154.9195070266724
1344,1155.7825031280518
1345,1156.621499300003
1346,1157.464495420456
1347,1158.3214917182922
1348,1159.1964876651764
1349,1160.0634837150574
1350,1160.9084799289703
1351,1161.7394762039185
1352,1162.5584723949432
1353,1163.4104685783386
1354,1164.3024644851685
1355,1165.213460445404
1356,1166.1304562091827
1357,1167.0134522914886
1358,1167.8914482593536
1359,1168.792444229126
1360,1169.7094399929047
1361,1170.6174359321594
1362,1171.5374319553375
1363,1172.4644277095795
1364,1173.3874235153198
1365,1174.2934193611145
1366,1175.191415309906
1367,1176.1164112091064
1368,1177.0534069538116
1369,1177.9934027194977
1370,1178.965398311615
1371,1179.894394159317
1372,1180.816389799118
1373,1181.7393856048584
1374,1182.674381494522
1375,1183.628377199173
1376,1184.5733728408813
1377,1185.5133686065674
1378,1186.3903646469116
1379,1187.2473607063293
1380,1188.1043570041656
1381,1188.98135304451
1382,1189.9103486537933
1383,1190.8413445949554
1384,1191.7903401851654
1385,1192.699336051941
1386,1193.5633323192596
1387,1194.4253282546997
1388,1195.29332447052
1389,1196.180320262909
1390,1197.076316356659
1391,1197.9883122444153
1392,1198.9203078746796
1393,1199.8653037548065
1394,1200.7892994880676
1395,1201.6782956123352
1396,1202.5862913131714
1397,1203.495287179947
1398,1204.3922832012177
1399,1205.2862792015076
1400,1206.171275138855
1401,1207.0232713222504
1402,1207.8602676391602
1403,1208.703263759613
1404,1209.5332601070404
1405,1210.3702561855316
1406,1211.220252275467
1407,1212.0632486343384
1408,1212.9132447242737
1409,1213.7642407417297
1410,1214.6362369060516
1411,1215.4932329654694
1412,1216.328229188919
1413,1217.1502256393433
1414,1217.967221736908
1415,1218.7622182369232
1416,1219.5772144794464
1417,1220.3942108154297
1418,1221.227207183838
1419,1222.0832033157349
1420,1222.945199251175
1421,1223.8021955490112
1422,1224.6151916980743
1423,1225.3781883716583
1424,1226.1231849193573
1425,1226.8811814785004
1426,1227.6791779994965
1427,1228.4431743621826
1428,1229.200170993805
1429,1230.029167175293
1430,1230.9061632156372
1431,1231.7371594905853
1432,1232.6031556129456
1433,1233.5301513671875
1434,1234.4461472034454
1435,1235.3811430931091
1436,1236.3501386642456
1437,1237.322134256363
1438,1238.2671301364899
1439,1239.1661260128021
1440,1240.0541219711304
1441,1240.9261178970337
1442,1241.7761142253876
1443,1242.6171102523804
1444,1243.4541065692902
1445,1244.297102689743
1446,1245.1280989646912
1447,1245.987095117569
1448,1246.8520913124084
1449,1247.7170872688293
1450,1248.5240836143494
1451,1249.3220801353455
1452,1250.1510763168335
1453,1250.9810724258423
1454,1251.7740688323975
1455,1252.5710654258728
1456,1253.4170615673065
1457,1254.275057554245
1458,1255.095053911209
1459,1255.932050228119
1460,1256.8030462265015
1461,1257.6810421943665
1462,1258.5100383758545
1463,1259.4090344905853
1464,1260.3090302944183
1465,1261.2100262641907
1466,1262.1120221614838
1467,1262.9950182437897
1468,1263.8890142440796
1469,1264.7550101280212
1470,1265.5730066299438
1471,1266.3520030975342
1472,1267.1559994220734
1473,1267.977995634079
1474,1268.8189918994904
1475,1269.6609880924225
1476,1270.5369839668274
1477,1271.425980091095
1478,1272.2339763641357
1479,1273.0719726085663
1480,1273.884968996048
1481,1274.680965423584
1482,1275.4419620037079
1483,1276.2449581623077
1484,1277.0759544372559
1485,1277.8749508857727
1486,1278.7069470882416
1487,1279.585943222046
1488,1280.46093916893
1489,1281.3069353103638
1490,1282.2049312591553
1491,1283.1099271774292
1492,1283.9479234218597
1493,1284.824919462204
1494,1285.6799156665802
1495,1286.536911725998
1496,1287.381907939911
1497,1288.2519040107727
1498,1289.1168999671936
1499,1289.9948961734772
1500,1290.859892129898
1501,1291.7308881282806
1502,1292.6138842105865
1503,1293.5058801174164
1504,1294.3768763542175
1505,1295.239872455597
1506,1296.117868423462
1507,1296.9938642978668
1508,1297.8288605213165
1509,1298.6788568496704
1510,1299.5458528995514
1511,1300.3868491649628
1512,1301.1938455104828
1513,1302.0348415374756
1514,1302.8818378448486
1515,1303.6928341388702
1516,1304.4668307304382
1517,1305.2958269119263
1518,1306.1378231048584
1519,1306.9538192749023
1520,1307.7728157043457
1521,1308.646811723709
1522,1309.5328075885773
1523,1310.3658039569855
1524,1311.2358000278473
1525,1312.10879611969
1526,1312.9907920360565
1527,1313.828788280487
1528,1314.7057843208313
1529,1315.6097803115845
1530,1316.5377759933472
1531,1317.4017720222473
1532,1318.2947680950165
1533,1319.1667640209198
1534,1320.0357601642609
1535,1320.8737564086914
1536,1321.744752407074
1537,1322.6377484798431
1538,1323.507744550705
1539,1324.358740568161
1540,1325.2427365779877
1541,1326.1287326812744
1542,1326.9817287921906
1543,1327.8597247600555
1544,1328.7347209453583
1545,1329.580717086792
1546,1330.3957133293152
1547,1331.2337095737457
1548,1332.1007056236267
1549,1332.9837017059326
1550,1333.8546977043152
1551,1334.7696936130524
1552,1335.71168923378
1553,1336.6276850700378
1554,1337.515681028366
1555,1338.4306769371033
1556,1339.3536727428436
1557,1340.2226688861847
1558,1341.1006648540497
1559,1341.9806609153748
1560,1342.8606569766998
1561,1343.7186529636383
1562,1344.615648984909
1563,1345.522644996643
1564,1346.37864112854
1565,1347.2506370544434
1566,1348.147633075714
1567,1349.0356290340424
1568,1349.8936252593994
1569,1350.7936210632324
1570,1351.702616930008
1571,1352.6016128063202
1572,1353.4586091041565
1573,1354.356605052948
1574,1355.272600889206
1575,1356.1655967235565
1576,1357.025592803955
1577,1357.9015889167786
1578,1358.764585018158
1579,1359.6105811595917
1580,1360.4455773830414
1581,1361.2885735034943
1582,1362.1195697784424
1583,1362.9015662670135
1584,1363.717562675476
1585,1364.5535588264465
1586,1365.3625552654266
1587,1366.1605515480042
1588,1367.0265476703644
1589,1367.9135437011719
1590,1368.7655398845673
1591,1369.646535873413
1592,1370.5305318832397
1593,1371.380527973175
1594,1372.269523859024
1595,1373.1475200653076
1596,1374.0045161247253
1597,1374.8095123767853
1598,1375.6185088157654
1599,1376.420505285263
1600,1377.227501630783
1601,1378.0624978542328
1602,1378.926493883133
1603,1379.78249001503
1604,1380.6404860019684
1605,1381.5224821567535
1606,1382.3904781341553
1607,1383.230474472046
1608,1384.0844705104828
1609,1384.9134666919708
1610,1385.7044632434845
1611,1386.5504593849182
1612,1387.3974554538727
1613,1388.2114517688751
1614,1389.0684480667114
1615,1389.9574439525604
1616,1390.7994401454926
1617,1391.673436164856
1618,1392.5444321632385
1619,1393.3914284706116
1620,1394.1974248886108
1621,1395.0034210681915
1622,1395.8264174461365
1623,1396.640413761139
1624,1397.4684100151062
1625,1398.3424060344696
1626,1399.1654024124146
1627,1399.9363987445831
1628,1400.6833953857422
1629,1401.4183921813965
1630,1402.1473886966705
1631,1402.8653855323792
1632,1403.5623824596405
1633,1404.2503793239594
1634,1404.9583761692047
1635,1405.6413729190826
1636,1406.336369752884
1637,1407.1023664474487
1638,1407.7773633003235
1639,1408.4903600215912
1640,1409.2043569087982
1641,1409.9273536205292
1642,1410.6743502616882
1643,1411.4303467273712
1644,1412.1903433799744
1645,1412.9593398571014
1646,1413.724336385727
1647,1414.4973330497742
1648,1415.2633295059204
1649,1416.036325931549
1650,1416.788322687149
1651,1417.5533192157745
1652,1418.3353157043457
1653,1419.1023120880127
1654,1419.8453087806702
1655,1420.5863053798676
1656,1421.3323020935059
1657,1422.0672986507416
1658,1422.8282952308655
1659,1423.6052918434143
1660,1424.3752882480621
1661,1425.1792845726013
1662,1426.0312807559967
1663,1426.8822770118713
1664,1427.7792727947235
1665,1428.6892688274384
1666,1429.6152646541595
1667,1430.4912605285645
1668,1431.331256866455
1669,1432.1482532024384
1670,1432.9632494449615
1671,1433.8082456588745
1672,1434.6482417583466
1673,1435.4692380428314
1674,1436.320234298706
1675,1437.1792304515839
1676,1438.0292265415192
1677,1438.8272228240967
1678,1439.6642191410065
1679,1440.5042152404785
1680,1441.3052117824554
1681,1442.125207901001
1682,1442.9402043819427
1683,1443.7602005004883
1684,1444.57319688797
1685,1445.4101932048798
1686,1446.2531893253326
1687,1447.070185661316
1688,1447.9141817092896
1689,1448.7621779441833
1690,1449.6181740760803
1691,1450.4561703205109
1692,1451.314166545868
1693,1452.170162677765
1694,1453.0061588287354
1695,1453.819155216217
1696,1454.6541514396667
1697,1455.4891476631165
1698,1456.3311438560486
1699,1457.1691398620605
1700,1457.9981362819672
1701,1458.8371324539185
1702,1459.684128522873
1703,1460.4961249828339
1704,1461.3011212348938
1705,1462.116117477417
1706,1462.9111139774323
1707,1463.6891105175018
1708,1464.4941067695618
1709,1465.3121030330658
1710,1466.145099401474
1711,1466.9620957374573
1712,1467.8150918483734
1713,1468.686087846756
1714,1469.5350840091705
1715,1470.3810801506042
1716,1471.227076292038
1717,1472.0440726280212
1718,1472.8220691680908
1719,1473.6400654315948
1720,1474.4740617275238
1721,1475.3190579414368
1722,1476.156054019928
1723,1477.041050195694
1724,1477.9450459480286
1725,1478.84304189682
1726,1479.6980381011963
1727,1480.5700340270996
1728,1481.435030221939
1729,1482.2530264854431
1730,1483.0970227718353
1731,1483.968018770218
1732,1484.832014799118
1733,1485.666011095047
1734,1486.5340070724487
1735,1487.416003227234
1736,1488.2509994506836
1737,1489.1039955615997
1738,1489.9819915294647
1739,1490.809987783432
1740,1491.627984046936
1741,1492.4739801883698
1742,1493.34197640419
1743,1494.1789724826813
1744,1495.0339686870575
1745,1495.9219646453857
1746,1496.820960521698
1747,1497.6589567661285
1748,1498.5409529209137
1749,1499.4409487247467
1750,1500.2729449272156
1751,1501.1369411945343
1752,1502.002937078476
1753,1502.849933385849
1754,1503.700929403305
1755,1504.5599255561829
1756,1505.3899219036102
1757,1506.1949181556702
1758,1507.0169146060944
1759,1507.8439106941223
1760,1508.654906988144
1761,1509.4779033660889
1762,1510.335899591446
1763,1511.1408958435059
1764,1511.9788920879364
1765,1512.8298881053925
1766,1513.6508843898773
1767,1514.490880727768
1768,1515.3428769111633
1769,1516.177873134613
1770,1516.9898693561554
1771,1517.8258655071259
1772,1518.6598618030548
1773,1519.4568581581116
1774,1520.2748544216156
1775,1521.0868508815765
1776,1521.8938472270966
1777,1522.691843509674
1778,1523.5088398456573
1779,1524.3418362140656
1780,1525.1528325080872
1781,1525.9638288021088
1782,1526.7818250656128
1783,1527.6088213920593
1784,1528.4338176250458
1785,1529.2518138885498
1786,1530.1078100204468
1787,1530.9748060703278
1788,1531.802802324295
1789,1532.6547985076904
1790,1533.5097947120667
1791,1534.359790802002
1792,1535.168787240982
1793,1535.9837834835052
1794,1536.8057796955109
1795,1537.6127760410309
1796,1538.434772491455
1797,1539.277768611908
1798,1540.1147646903992
1799,1540.929761171341
1800,1541.7797572612762
1801,1542.6407532691956
1802,1543.467749595642
1803,1544.3067457675934
1804,1545.1457419395447
1805,1545.9477384090424
1806,1546.7507348060608
1807,1547.5647311210632
1808,1548.3847274780273
1809,1549.1827237606049
1810,1550.013720035553
1811,1550.8467161655426
1812,1551.67671251297
1813,1552.4757089614868
1814,1553.3057050704956
1815,1554.1507012844086
1816,1554.9816975593567
1817,1555.7956938743591
1818,1556.6376900672913
1819,1557.483686208725
1820,1558.3026826381683
1821,1559.1306788921356
1822,1559.958675146103
1823,1560.800671339035
1824,1561.6116676330566
1825,1562.445663690567
1826,1563.2836599349976
1827,1564.1316561698914
1828,1564.958652496338
1829,1565.7776486873627
1830,1566.6026449203491
1831,1567.4216413497925
1832,1568.2586374282837
1833,1569.0736339092255
1834,1569.887630224228
1835,1570.7206263542175
1836,1571.572622537613
1837,1572.4076187610626
1838,1573.248615026474
1839,1574.1066110134125
1840,1574.9486072063446
1841,1575.7726035118103
1842,1576.5895998477936
1843,1577.4355959892273
1844,1578.2875921726227
1845,1579.1495883464813
1846,1580.0105843544006
1847,1580.8415806293488
1848,1581.7005767822266
1849,1582.5605728626251
1850,1583.4175689220428
1851,1584.2535650730133
1852,1585.1025612354279
1853,1585.9545574188232
1854,1586.8255534172058
1855,1587.6555497646332
1856,1588.5165457725525
1857,1589.3725419044495
1858,1590.2285380363464
1859,1591.0565342903137
1860,1591.897530555725
1861,1592.758526802063
1862,1593.636522769928
1863,1594.481518983841
1864,1595.37251496315
1865,1596.261510848999
1866,1597.095507144928
1867,1597.8995034694672
1868,1598.7404997348785
1869,1599.5834958553314
1870,1600.3844921588898
1871,1601.212488412857
1872,1602.0544846057892
1873,1602.9054808616638
1874,1603.7104771137238
1875,1604.5364735126495
1876,1605.37246966362
1877,1606.1874659061432
1878,1607.013462305069
1879,1607.858458518982
1880,1608.6884546279907
1881,1609.481451034546
1882,1610.29944729805
1883,1611.146443605423
1884,1611.9604399204254
1885,1612.7924361228943
1886,1613.6244323253632
1887,1614.4174287319183
1888,1615.2374250888824
1889,1616.086421251297
1890,1616.9354174137115
1891,1617.749413728714
1892,1618.5834097862244
1893,1619.4414060115814
1894,1620.239402294159
1895,1621.0503988265991
1896,1621.8723950386047
1897,1622.6723914146423
1898,1623.439388036728
1899,1624.1993844509125
1900,1624.9593811035156
1901,1625.7463774681091
1902,1626.580373764038
1903,1627.4413697719574
1904,1628.3093659877777
1905,1629.1393620967865
1906,1629.9763584136963
1907,1630.8583543300629
1908,1631.735350370407
1909,1632.629346370697
1910,1633.5303423404694
1911,1634.414338350296
1912,1635.3133342266083
1913,1636.2253301143646
1914,1637.1393258571625
1915,1638.039321899414
1916,1638.9493176937103
1917,1639.857313632965
1918,1640.7543096542358
1919,1641.6373057365417
1920,1642.498301744461
1921,1643.3532979488373
1922,1644.1822941303253
1923,1644.9882905483246
1924,1645.83828663826
1925,1646.6982827186584
1926,1647.5292789936066
1927,1648.3632752895355
1928,1649.2112712860107
1929,1650.0322675704956
1930,1650.840264081955
1931,1651.6762602329254
1932,1652.5102565288544
1933,1653.3032529354095
1934,1654.1382491588593
1935,1654.9782452583313
1936,1655.8122415542603
1937,1656.6662375926971
1938,1657.5442337989807
1939,1658.4252297878265
1940,1659.2672259807587
1941,1660.1352219581604
1942,1661.022217988968
1943,1661.8962140083313
1944,1662.7352101802826
1945,1663.5432064533234
1946,1664.3862028121948
1947,1665.2421989440918
1948,1666.1241948604584
1949,1666.9741909503937
1950,1667.853187084198
1951,1668.7381830215454
1952,1669.5811791419983
1953,1670.3901755809784
1954,1671.1981718540192
1955,1672.0021681785583
1956,1672.7871646881104
1957,1673.616161108017
1958,1674.4851570129395
1959,1675.339153289795
1960,1676.1671495437622
1961,1677.013145685196
1962,1677.8621418476105
1963,1678.6781380176544
1964,1679.518134355545
1965,1680.372130393982
1966,1681.2091267108917
1967,1682.024122953415
1968,1682.8691191673279
1969,1683.720115184784
1970,1684.5331115722656
1971,1685.352108001709
1972,1686.2011041641235
1973,1687.035100221634
1974,1687.8560965061188
1975,1688.6860928535461
1976,1689.5440888404846
1977,1690.363085269928
1978,1691.2220814228058
1979,1692.070077419281
1980,1692.8730738162994
1981,1693.7120699882507
1982,1694.5540661811829
1983,1695.379062652588
1984,1696.1850588321686
1985,1697.0060551166534
1986,1697.8330514431
1987,1698.6320478916168
1988,1699.4510440826416
1989,1700.2690403461456
1990,1701.1000366210938
1991,1701.906033039093
1992,1702.7330293655396
1993,1703.5650255680084
1994,1704.3830218315125
1995,1705.1710183620453
1996,1705.9860146045685
1997,1706.7960109710693
1998,1707.582007408142
1999,1708.4110035896301
2000,1709.2459998130798
2001,1710.0799961090088
2002,1710.9069924354553
2003,1711.7709884643555
2004,1712.6619844436646
2005,1713.4679808616638
2006,1714.293977022171
2007,1715.098973274231
2008,1715.8759698867798
2009,1716.679966211319
2010,1717.4989624023438
2011,1718.3139588832855
2012,1719.1019551753998
2013,1719.894951581955
2014,1720.7089478969574
2015,1721.4929444789886
2016,1722.2539410591125
2017,1723.0229375362396
2018,1723.8249340057373
2019,1724.6279301643372
2020,1725.41592669487
2021,1726.1969232559204
2022,1726.994919538498
2023,1727.7999160289764
2024,1728.599912405014
2025,1729.382908821106
2026,1730.1889050006866
2027,1730.996901512146
2028,1731.8288977146149
2029,1732.6828937530518
2030,1733.5468900203705
2031,1734.4008860588074
2032,1735.262882232666
2033,1736.129878282547
2034,1736.9918744564056
2035,1737.8318705558777
2036,1738.6608667373657
2037,1739.5098628997803
2038,1740.3538591861725
2039,1741.180855512619
2040,1742.031851530075
2041,1742.912847518921
2042,1743.7748436927795
2043,1744.645839691162
2044,1745.5308356285095
2045,1746.3948318958282
2046,1747.2558279037476
2047,1748.1258239746094
2048,1748.9888200759888
2049,1749.8458161354065
2050,1750.7038123607635
2051,1751.5768084526062
2052,1752.4328045845032
2053,1753.2858006954193
2054,1754.153796672821
2055,1755.0267927646637
2056,1755.889788866043
2057,1756.7517850399017
2058,1757.634780883789
2059,1758.5257768630981
2060,1759.4047729969025
2061,1760.262768983841
2062,1761.1287651062012
2063,1762.0167610645294
2064,1762.8887572288513
2065,1763.7667531967163
2066,1764.6487493515015
2067,1765.5337452888489
2068,1766.3817415237427
2069,1767.2527375221252
2070,1768.125733613968
2071,1768.9957296848297
2072,1769.8477256298065
2073,1770.7177217006683
2074,1771.5917179584503
2075,1772.4617140293121
2076,1773.3147101402283
2077,1774.193706035614
2078,1775.0807020664215
2079,1775.9606981277466
2080,1776.8376941680908
2081,1777.717690229416
2082,1778.6016862392426
2083,1779.4526822566986
2084,1780.3236782550812
2085,1781.2056744098663
2086,1782.073670387268
2087,1782.972666501999
2088,1783.8936622142792
2089,1784.8206579685211
2090,1785.7206540107727
2091,1786.641649723053
2092,1787.5696456432343
2093,1788.4916415214539
2094,1789.3866374492645
2095,1790.2926332950592
2096,1791.1776292324066
2097,1792.029625415802
2098,1792.8846216201782
2099,1793.7786176204681
2100,1794.6696133613586
2101,1795.5396094322205
2102,1796.4206056594849
2103,1797.3036015033722
2104,1798.1605978012085
2105,1799.0215938091278
2106,1799.9035897254944
2107,1800.781585931778
2108,1801.6525819301605
2109,1802.4975781440735
2110,1803.368574142456
2111,1804.240570306778
2112,1805.08256649971
2113,1805.9545624256134
2114,1806.8335585594177
2115,1807.7075545787811
2116,1808.5445506572723
2117,1809.4095468521118
2118,1810.2675428390503
2119,1811.1175391674042
2120,1811.9595353603363
2121,1812.8155314922333
2122,1813.650527715683
2123,1814.422524213791
2124,1815.1945207118988
2125,1815.9305174350739
2126,1816.6635138988495
2127,1817.4385104179382
2128,1818.2455067634583
2129,1819.036503314972
2130,1819.8704996109009
2131,1820.7004957199097
2132,1821.528491973877
2133,1822.3214883804321
2134,1823.0764849185944
2135,1823.8534815311432
2136,1824.6454780101776
2137,1825.4484741687775
2138,1826.2354707717896
2139,1827.0594670772552
2140,1827.9214630126953
2141,1828.8114590644836
2142,1829.6754550933838
2143,1830.5834510326385
2144,1831.5044469833374
2145,1832.402442932129
2146,1833.2574388980865
2147,1834.122435092926
2148,1834.9954311847687
2149,1835.8144273757935
2150,1836.6704235076904
2151,1837.5254197120667
2152,1838.388415813446
2153,1839.2194120883942
2154,1840.0554082393646
2155,1840.9144043922424
2156,1841.774400472641
2157,1842.590396642685
2158,1843.424392938614
2159,1844.2483892440796
2160,1845.0703854560852
2161,1845.869381904602
2162,1846.6933782100677
2163,1847.5173745155334
2164,1848.293370962143
2165,1849.0813674926758
2166,1849.8623638153076
2167,1850.6623601913452
2168,1851.4473567008972
2169,1852.2833528518677
2170,1853.135349035263
2171,1853.9653453826904
2172,1854.754341840744
2173,1855.572338104248
2174,1856.404334306717
2175,1857.1883306503296
2176,1857.9813270568848
2177,1858.7843234539032
2178,1859.5753200054169
2179,1860.3673162460327
2180,1861.1943125724792
2181,1862.020308971405
2182,1862.9233047962189
2183,1863.7683010101318
2184,1864.6182971000671
2185,1865.488293170929
2186,1866.3602893352509
2187,1867.1802854537964
2188,1868.075281381607
2189,1868.9842772483826
2190,1869.8442735671997
2191,1870.7092695236206
2192,1871.5862655639648
2193,1872.4572615623474
2194,1873.2942578792572
2195,1874.1362540721893
2196,1874.9952502250671
2197,1875.8522462844849
2198,1876.6912424564362
2199,1877.5642385482788
2200,1878.4422345161438
2201,1879.3032307624817
2202,1880.0842270851135
2203,1880.8302237987518
2204,1881.5682203769684
2205,1882.3402168750763
2206,1883.169213294983
2207,1884.011209487915
2208,1884.8742055892944
2209,1885.7242016792297
2210,1886.5561978816986
2211,1887.3581943511963
2212,1888.1371908187866
2213,1888.9181871414185
2214,1889.7031836509705
2215,1890.4721801280975
2216,1891.2521767616272
2217,1891.9991731643677
2218,1892.736170053482
2219,1893.454166650772
2220,1894.1561634540558
2221,1894.8471603393555
2222,1895.539157152176
2223,1896.226154088974
2224,1896.9031510353088
2225,1897.5671479701996
2226,1898.2111451625824
2227,1898.8411424160004
2228,1899.4671394824982
2229,1900.1011366844177
2230,1900.736133813858
2231,1901.3671309947968
2232,1902.0421278476715
2233,1902.7071249485016
2234,1903.3651218414307
2235,1904.0251188278198
2236,1904.725115776062
2237,1905.3811128139496
2238,1906.0721096992493
2239,1906.7621064186096
2240,1907.4091036319733
2241,1908.038100719452
2242,1908.6820979118347
2243,1909.315094947815
2244,1909.9540920257568
2245,1910.5850892066956
2246,1911.2100863456726
2247,1911.8550834655762
2248,1912.4820806980133
2249,1913.1140778064728
2250,1913.747074842453
2251,1914.3840720653534
2252,1914.9970693588257
2253,1915.6070663928986
2254,1916.2050638198853
2255,1916.8040611743927
2256,1917.3960583209991
2257,1917.9940557479858
2258,1918.5890529155731
2259,1919.1890501976013
2260,1919.782047510147
2261,1920.3750448226929
2262,1920.9650423526764
2263,1921.5680394172668
2264,1922.1580369472504
2265,1922.7510342597961
2266,1923.3450314998627
2267,1923.9450287818909
2268,1924.543025970459
2269,1925.1360232830048
2270,1925.7310206890106
2271,1926.317018032074
2272,1926.8860154151917
2273,1927.4620127677917
2274,1928.0360102653503
2275,1928.6230075359344
2276,1929.2120048999786
2277,1929.8040022850037
2278,1930.3859996795654
2279,1930.9639971256256
2280,1931.5399944782257
2281,1932.1189918518066
2282,1932.7069890499115
2283,1933.2869865894318
2284,1933.8799839019775
2285,1934.4729812145233
2286,1935.0569784641266
2287,1935.6389758586884
2288,1936.2199733257294
2289,1936.8049705028534
2290,1937.3829679489136
2291,1937.9589653015137
2292,1938.5319628715515
2293,1939.1009602546692
2294,1939.671957731247
2295,1940.2469551563263
2296,1940.8209524154663
2297,1941.389949798584
2298,1941.9679472446442
2299,1942.5659446716309
2300,1943.1589419841766
2301,1943.731939315796
2302,1944.3129365444183
2303,1944.8919341564178
2304,1945.4619314670563
2305,1946.0299289226532
2306,1946.6079263687134
2307,1947.174923658371
2308,1947.753921031952
2309,1948.3529183864594
2310,1948.948915719986
2311,1949.5489130020142
2312,1950.1379103660583
2313,1950.742907524109
2314,1951.3449048995972
2315,1951.932902097702
2316,1952.5188994407654
2317,1953.116896867752
2318,1953.7038941383362
2319,1954.2888915538788
2320,1954.877888917923
2321,1955.4738862514496
2322,1956.0698835849762
2323,1956.657880783081
2324,1957.2508780956268
2325,1957.8408753871918
2326,1958.4348728656769
2327,1959.0308701992035
2328,1959.6298673152924
2329,1960.2298645973206
2330,1960.8368618488312
2331,1961.418859243393
2332,1961.977856874466
2333,1962.5358543395996
2334,1963.0858516693115
2335,1963.635849237442
2336,1964.17684674263
2337,1964.719844341278
2338,1965.254842042923
2339,1965.784839630127
2340,1966.3188371658325
2341,1966.8468346595764
2342,1967.3708324432373
2343,1967.9108300209045
2344,1968.4848272800446
2345,1969.094824552536
2346,1969.7288217544556
2347,1970.3698189258575
2348,1970.9878160953522
2349,1971.5848133563995
2350,1972.1718106269836
2351,1972.768807888031
2352,1973.3728051185608
2353,1973.9628026485443
2354,1974.5587997436523
2355,1975.1517972946167
2356,1975.7307946681976
2357,1976.2907919883728
2358,1976.8497893810272
2359,1977.4067869186401
2360,1977.974784374237
2361,1978.5577816963196
2362,1979.1357791423798
2363,1979.7097766399384
2364,1980.278774023056
2365,1980.8557713031769
2366,1981.4287688732147
2367,1981.9977662563324
2368,1982.5607635974884
2369,1983.1247611045837
2370,1983.6877586841583
2371,1984.2417559623718
2372,1984.792753458023
2373,1985.3477511405945
2374,1985.9057486057281
2375,1986.4817459583282
2376,1987.050743341446
2377,1987.6417407989502
2378,1988.2267379760742
2379,1988.8347353935242
2380,1989.433732509613
2381,1990.063729763031
2382,1990.6787269115448
2383,1991.2937240600586
2384,1991.8867213726044
2385,1992.4907188415527
2386,1993.098716020584
2387,1993.7187132835388
2388,1994.340710401535
2389,1994.9287078380585
2390,1995.520704984665
2391,1996.1417021751404
2392,1996.7686994075775
2393,1997.4046964645386
2394,1998.0266938209534
2395,1998.6526908874512
2396,1999.291687965393
2397,1999.9266850948334
2398,2000.5406823158264
2399,2001.134679555893
2400,2001.7336769104004
2401,2002.3336741924286
2402,2002.9276714324951
2403,2003.5236687660217
2404,2004.136666059494
2405,2004.7316634654999
2406,2005.3236606121063
2407,2005.9246580600739
2408,2006.5296552181244
2409,2007.1356525421143
2410,2007.7336497306824
2411,2008.320647239685
2412,2008.90864443779
2413,2009.5156416893005
2414,2010.1796388626099
2415,2010.908635377884
2416,2011.5446326732635
2417,2012.2186295986176
2418,2012.8916265964508
2419,2013.5726234912872
2420,2014.2376203536987
2421,2014.9186172485352
2422,2015.6036143302917
2423,2016.2666113376617
2424,2016.9026083946228
2425,2017.5226056575775
2426,2018.1466026306152
2427,2018.7975997924805
2428,2019.4345967769623
2429,2020.056594133377
2430,2020.7095911502838
2431,2021.371588230133
2432,2022.0225851535797
2433,2022.6665823459625
2434,2023.2865793704987
2435,2023.9205765724182
2436,2024.613573551178
2437,2025.3735699653625
2438,2026.072566986084
2439,2026.8185634613037
2440,2027.4965603351593
2441,2028.200557231903
2442,2028.8765542507172
2443,2029.5285513401031
2444,2030.176548242569
2445,2030.817545413971
2446,2031.444542646408
2447,2032.0625398159027
2448,2032.684536933899
2449,2033.3075342178345
2450,2033.9155313968658
2451,2034.529528617859
2452,2035.1465258598328
2453,2035.7715229988098
2454,2036.4005200862885
2455,2037.021517276764
2456,2037.6295146942139
2457,2038.2455117702484
2458,2038.8775088787079
2459,2039.506506204605
2460,2040.1235032081604
2461,2040.7365005016327
2462,2041.362497806549
2463,2042.0224947929382
2464,2042.6824917793274
2465,2043.3444888591766
2466,2044.0034856796265
2467,2044.6664826869965
2468,2045.3454797267914
2469,2046.0434765815735
2470,2046.72647356987
2471,2047.4124703407288
2472,2048.093467235565
2473,2048.737464427948
2474,2049.395461320877
2475,2050.033458471298
2476,2050.691455602646
2477,2051.3184525966644
2478,2051.9354498386383
2479,2052.5484471321106
2480,2053.18244433403
2481,2053.8154413700104
2482,2054.4644384384155
2483,2055.1174354553223
2484,2055.7524325847626
2485,2056.387429714203
2486,2057.0304267406464
2487,2057.6654238700867
2488,2058.304421186447
2489,2058.9254183769226
2490,2059.566415309906
2491,2060.1974124908447
2492,2060.8634095191956
2493,2061.4834067821503
2494,2062.098403930664
2495,2062.736401081085
2496,2063.4043979644775
2497,2064.1033947467804
2498,2064.7983918190002
2499,2065.500388622284
2500,2066.232385158539
2501,2066.95738196373
2502,2067.669378757477
2503,2068.3953754901886
2504,2069.077372312546
2505,2069.7543692588806
2506,2070.432366132736
2507,2071.1213631629944
2508,2071.7813601493835
2509,2072.448357105255
2510,2073.0973541736603
2511,2073.7333512306213
2512,2074.378348350525
2513,2075.1153450012207
2514,2075.7623422145844
2515,2076.5143387317657
2516,2077.176335811615
2517,2077.8683326244354
2518,2078.546329498291
2519,2079.245326280594
2520,2079.9253232479095
2521,2080.5963201522827
2522,2081.2773172855377
2523,2081.967314004898
2524,2082.6393110752106
2525,2083.294307947159
2526,2083.937305212021
2527,2084.562302350998
2528,2085.185299396515
2529,2085.804296731949
2530,2086.4322938919067
2531,2087.051290988922
2532,2087.6722881793976
2533,2088.306285381317
2534,2088.9542825222015
2535,2089.58327960968
2536,2090.192276954651
2537,2090.8072741031647
2538,2091.442271232605
2539,2092.1122682094574
2540,2092.755265235901
2541,2093.3832623958588
2542,2094.0042595863342
2543,2094.6392567157745
2544,2095.276253938675
2545,2095.909250974655
2546,2096.518248319626
2547,2097.1232454776764
2548,2097.727242708206
2549,2098.341239929199
2550,2098.977237224579
2551,2099.649234056473
2552,2100.33323097229
2553,2101.042227745056
2554,2101.7662246227264
2555,2102.491221189499
2556,2103.2212178707123
2557,2103.9552145004272
2558,2104.705211162567
2559,2105.466207742691
2560,2106.2192044258118
2561,2106.9542009830475
2562,2107.6491978168488
2563,2108.3401947021484
2564,2109.010191679001
2565,2109.719188451767
2566,2110.4391853809357
2567,2111.1741819381714
2568,2111.9201786518097
2569,2112.672175168991
2570,2113.4161717891693
2571,2114.1971683502197
2572,2115.011164665222
2573,2115.805160999298
2574,2116.5611577033997
2575,2117.291154384613
2576,2117.968151330948
2577,2118.6671481132507
2578,2119.3201451301575
2579,2120.014142036438
2580,2120.6811389923096
2581,2121.3821358680725
2582,2122.0701327323914
2583,2122.748129606247
2584,2123.4041266441345
2585,2124.0921235084534
2586,2124.780120372772
2587,2125.4671173095703
2588,2126.139114379883
2589,2126.788111448288
2590,2127.4171085357666
2591,2128.0551056861877
2592,2128.8141021728516
2593,2129.520098924637
2594,2130.2270958423615
2595,2130.9690923690796
2596,2131.69108915329
2597,2132.41108584404
2598,2133.1300826072693
2599,2133.821079492569
2600,2134.535076379776
2601,2135.212073326111
2602,2135.9040701389313
2603,2136.5470671653748
2604,2137.184064388275
2605,2137.8280613422394
2606,2138.4680585861206
2607,2139.09805560112
2608,2139.737052679062
2609,2140.36905002594
2610,2141.016047000885
2611,2141.681044101715
2612,2142.351040840149
2613,2143.005038022995
2614,2143.6450350284576
2615,2144.3370320796967
2616,2145.040028810501
2617,2145.741025686264
2618,2146.440022468567
2619,2147.152019262314
2620,2147.849016189575
2621,2148.545012950897
2622,2149.217009782791
2623,2149.8810069561005
2624,2150.537003993988
2625,2151.1670010089874
2626,2151.811998128891
2627,2152.4589953422546
2628,2153.1329922676086
2629,2153.8239891529083
2630,2154.4899859428406
2631,2155.1679830551147
2632,2155.8559799194336
2633,2156.566976547241
2634,2157.2769734859467
2635,2157.981970310211
2636,2158.6859669685364
2637,2159.3829638957977
2638,2160.064960718155
2639,2160.764957666397
2640,2161.4429545402527
2641,2162.103951692581
2642,2162.792948484421
2643,2163.4649455547333
2644,2164.137942314148
2645,2164.8119394779205
2646,2165.478936433792
2647,2166.164933204651
2648,2166.9019298553467
2649,2167.612926721573
2650,2168.319923400879
2651,2169.003920316696
2652,2169.704917192459
2653,2170.383914232254
2654,2171.043911218643
2655,2171.7269082069397
2656,2172.435904979706
2657,2173.1189017295837
2658,2173.805898666382
2659,2174.501895427704
2660,2175.209892272949
2661,2175.927889108658
2662,2176.6568858623505
2663,2177.3638825416565
2664,2178.0788793563843
2665,2178.7758762836456
2666,2179.47687292099
2667,2180.1698698997498
2668,2180.869866847992
2669,2181.540863752365
2670,2182.18786072731
2671,2182.817857980728
2672,2183.4398550987244
2673,2184.0728521347046
2674,2184.7108492851257
2675,2185.3658463954926
2676,2186.0178434848785
2677,2186.6758403778076
2678,2187.3088376522064
2679,2187.9358348846436
2680,2188.5488319396973
2681,2189.1458292007446
2682,2189.7548265457153
2683,2190.3668236732483
2684,2190.975821018219
2685,2191.5968182086945
2686,2192.216815471649
2687,2192.833812713623
2688,2193.4558098316193
2689,2194.070806980133
2690,2194.700804233551
2691,2195.326801300049
2692,2195.939798593521
2693,2196.559795856476
2694,2197.179792881012
2695,2197.7897901535034
2696,2198.390787601471
2697,2198.999784708023
2698,2199.614781856537
2699,2200.227779150009
2700,2200.83477640152
2701,2201.436773777008
2702,2202.0427708625793
2703,2202.654768228531
2704,2203.2517654895782
2705,2203.836762905121
2706,2204.428760290146
2707,2205.026757478714
2708,2205.6147549152374
2709,2206.2407519817352
2710,2206.903748989105
2711,2207.6237456798553
2712,2208.349742412567
2713,2209.0847392082214
2714,2209.8217358589172
2715,2210.5547325611115
2716,2211.2697291374207
2717,2211.980726003647
2718,2212.6957228183746
2719,2213.4247195720673
2720,2214.1537160873413
2721,2214.906712770462
2722,2215.6487095355988
2723,2216.368706226349
2724,2217.041703224182
2725,2217.7936997413635
2726,2218.536696434021
2727,2219.3356926441193
2728,2220.186688899994
2729,2221.0456850528717
2730,2221.9146811962128
2731,2222.7196774482727
2732,2223.5266737937927
2733,2224.319670200348
2734,2225.114666700363
2735,2225.9016630649567
2736,2226.702659368515
2737,2227.490655899048
2738,2228.2656524181366
2739,2229.022649049759
2740,2229.7846455574036
2741,2230.5456421375275
2742,2231.316638469696
2743,2232.1056349277496
2744,2232.900631427765
2745,2233.7026278972626
2746,2234.4946241378784
2747,2235.299620628357
2748,2236.063616991043
2749,2236.8666133880615
2750,2237.646610021591
2751,2238.4366064071655
2752,2239.215602874756
2753,2240.0125992298126
2754,2240.802595615387
2755,2241.5585923194885
2756,2242.3365886211395
2757,2243.11558508873
2758,2243.910581588745
2759,2244.7005779743195
2760,2245.4665746688843
2761,2246.2545709609985
2762,2247.044567346573
2763,2247.8445637226105
2764,2248.6375601291656
2765,2249.399556875229
2766,2250.1835532188416
2767,2250.9855496883392
2768,2251.8135459423065
2769,2252.622542142868
2770,2253.40553855896
2771,2254.2205350399017
2772,2255.02353143692
2773,2255.7875277996063
2774,2256.52152466774
2775,2257.2965211868286
2776,2258.0605175495148
2777,2258.806514263153
2778,2259.5505108833313
2779,2260.299507379532
2780,2261.067503929138
2781,2261.8275005817413
2782,2262.5734972953796
2783,2263.3294937610626
2784,2264.096490383148
2785,2264.8724868297577
2786,2265.643483400345
2787,2266.4324798583984
2788,2267.2354760169983
2789,2268.0204725265503
2790,2268.8024690151215
2791,2269.5414657592773
2792,2270.298462152481
2793,2271.0434589385986
2794,2271.7884554862976
2795,2272.533452272415
2796,2273.3024487495422
2797,2274.036445379257
2798,2274.8074419498444
2799,2275.581438302994
2800,2276.366434812546
2801,2277.115431547165
2802,2277.8914279937744
2803,2278.676424264908
2804,2279.4464209079742
2805,2280.197417497635
2806,2280.9594140052795
2807,2281.7444105148315
2808,2282.499407052994
2809,2283.254403591156
2810,2284.0443999767303
2811,2284.833396434784
2812,2285.615392923355
2813,2286.3713896274567
2814,2287.1603860855103
2815,2287.943382501602
2816,2288.742378950119
2817,2289.5043754577637
2818,2290.32937169075
2819,2291.1703679561615
2820,2291.9563643932343
2821,2292.7113609313965
2822,2293.465357542038
2823,2294.215354204178
2824,2294.943350791931
2825,2295.653347492218
2826,2296.329344511032
2827,2297.0623412132263
2828,2297.813337802887
2829,2298.5543344020844
2830,2299.3033311367035
2831,2300.0533277988434
2832,2300.810324192047
2833,2301.5643208026886
2834,2302.334317445755
2835,2303.081314086914
2836,2303.8323106765747
2837,2304.5563073158264
2838,2305.298304080963
2839,2306.003300666809
2840,2306.7492973804474
2841,2307.441294193268
2842,2308.1922907829285
2843,2308.9302875995636
2844,2309.647284269333
2845,2310.356281042099
2846,2311.065277814865
2847,2311.7612748146057
2848,2312.500271320343
2849,2313.238268136978
2850,2314.0092644691467
2851,2314.7752611637115
2852,2315.5202577114105
2853,2316.3022541999817
2854,2317.097250699997
2855,2317.899246931076
2856,2318.7032432556152
2857,2319.5092396736145
2858,2320.2812361717224
2859,2321.0762326717377
2860,2321.861228942871
2861,2322.665225505829
2862,2323.469221830368
2863,2324.2572181224823
2864,2325.0142147541046
2865,2325.792211294174
2866,2326.5692076683044
2867,2327.372204065323
2868,2328.1752004623413
2869,2329.0061967372894
2870,2329.8511929512024
2871,2330.6571893692017
2872,2331.4841854572296
2873,2332.298181772232
2874,2333.0681784152985
2875,2333.8211748600006
2876,2334.555171728134
2877,2335.2741684913635
2878,2335.9891650676727
2879,2336.710161924362
2880,2337.42515873909
2881,2338.1631553173065
2882,2338.8741521835327
2883,2339.602148771286
2884,2340.316145658493
2885,2341.0161423683167
2886,2341.7331392765045
2887,2342.482135772705
2888,2343.213132381439
2889,2343.944129228592
2890,2344.6471259593964
2891,2345.3781225681305
2892,2346.0811195373535
2893,2346.783116340637
2894,2347.4651131629944
2895,2348.137110233307
2896,2348.8251070976257
2897,2349.506103992462
2898,2350.1661009788513
2899,2350.8420979976654
2900,2351.511095046997
2901,2352.2020919322968
2902,2352.8690888881683
2903,2353.5540857315063
2904,2354.245082616806
2905,2354.931079387665
2906,2355.620076417923
2907,2356.308073282242
2908,2356.9880702495575
2909,2357.667067050934
2910,2358.3570640087128
2911,2359.060060739517
2912,2359.7460577487946
2913,2360.4200546741486
2914,2361.114051580429
2915,2361.7960484027863
2916,2362.4570455551147
2917,2363.115042448044
2918,2363.7690393924713
2919,2364.4310364723206
2920,2365.082033634186
2921,2365.745030641556
2922,2366.4110276699066
2923,2367.0700244903564
2924,2367.7220215797424
2925,2368.3930184841156
2926,2369.0600156784058
2927,2369.7110126018524
2928,2370.3760097026825
2929,2371.055006504059
2930,2371.7330033779144
2931,2372.4100003242493
2932,2373.099997282028
2933,2373.798994064331
2934,2374.469991207123
2935,2375.1419880390167
2936,2375.813985109329
2937,2376.4979820251465
2938,2377.1919786930084
2939,2377.8589758872986
2940,2378.524972677231
2941,2379.18496966362
2942,2379.8409667015076
2943,2380.498963832855
2944,2381.1809606552124
2945,2381.8579576015472
2946,2382.5229547023773
2947,2383.2019515037537
2948,2383.9029483795166
2949,2384.621945142746
2950,2385.3639419078827
2951,2386.080938577652
2952,2386.791935443878
2953,2387.5139322280884
2954,2388.26592874527
2955,2389.0169253349304
2956,2389.7759218215942
2957,2390.5449182987213
2958,2391.311914920807
2959,2392.082911491394
2960,2392.832908153534
2961,2393.5929045677185
2962,2394.337901353836
2963,2395.06889796257
2964,2395.775894641876
2965,2396.4728915691376
2966,2397.1688883304596
2967,2397.8718852996826
2968,2398.576882123947
2969,2399.310878753662
2970,2400.08287525177
2971,2400.8398718833923
2972,2401.568868637085
2973,2402.3318650722504
2974,2403.1008615493774
2975,2403.8608582019806
2976,2404.5848548412323
2977,2405.315851688385
2978,2406.01984834671
2979,2406.704845428467
2980,2407.4018421173096
2981,2408.1048390865326
2982,2408.8008358478546
2983,2409.482832670212
2984,2410.1788296699524
2985,2410.8828263282776
2986,2411.579823255539
2987,2412.30482006073
2988,2413.0188167095184
2989,2413.722813606262
2990,2414.4368102550507
2991,2415.152806997299
2992,2415.8398039340973
2993,2416.541800737381
2994,2417.242797613144
2995,2417.918794631958
2996,2418.600791454315
2997,2419.2927882671356
2998,2419.9637854099274
2999,2420.63378238678
3000,2421.3107793331146
3001,2421.999776124954
3002,2422.6737730503082
3003,2423.351769924164
3004,2424.0317668914795
3005,2424.6837639808655
3006,2425.3277611732483
3007,2425.983758211136
3008,2426.640755176544
3009,2427.3077521324158
3010,2427.9767491817474
3011,2428.663745880127
3012,2429.341742992401
3013,2430.004739999771
3014,2430.6827368736267
3015,2431.380733728409
3016,2432.0837304592133
3017,2432.789727449417
3018,2433.5047240257263
3019,2434.2147209644318
3020,2434.9087176322937
3021,2435.596714735031
3022,2436.287711620331
3023,2436.9517085552216
3024,2437.60870552063
3025,2438.2887024879456
3026,2438.977699279785
3027,2439.6616961956024
3028,2440.3596930503845
3029,2441.083689928055
3030,2441.8026864528656
3031,2442.490683555603
3032,2443.1816804409027
3033,2443.8866770267487
3034,2444.5546741485596
3035,2445.222671031952
3036,2445.8886680603027
3037,2446.539665222168
3038,2447.210662126541
3039,2447.8786590099335
3040,2448.5676560401917
3041,2449.237653017044
3042,2449.9136497974396
3043,2450.6026468276978
3044,2451.2966437339783
3045,2451.9656405448914
3046,2452.635637521744
3047,2453.3256344795227
3048,2454.0276312828064
3049,2454.716628074646
3050,2455.4126250743866
3051,2456.1446216106415
3052,2456.875618457794
3053,2457.561615228653
3054,2458.2606122493744
3055,2458.9656088352203
3056,2459.672605752945
3057,2460.3536026477814
3058,2461.046599626541
3059,2461.7845962047577
3060,2462.536592721939
3061,2463.250589609146
3062,2463.9705862998962
3063,2464.7225828170776
3064,2465.457579612732
3065,2466.167576313019
3066,2466.916573047638
3067,2467.6435697078705
3068,2468.346566438675
3069,2469.058563232422
3070,2469.7895600795746
3071,2470.500556707382
3072,2471.1975536346436
3073,2471.9065504074097
3074,2472.6685469150543
3075,2473.3905436992645
3076,2474.119540452957
3077,2474.815537214279
3078,2475.4855341911316
3079,2476.163531064987
3080,2476.8415281772614
3081,2477.551524877548
3082,2478.2595217227936
3083,2478.9425184726715
3084,2479.6355154514313
3085,2480.359512090683
3086,2481.0785088539124
3087,2481.8005056381226
3088,2482.544502258301
3089,2483.2984988689423
3090,2484.0074956417084
3091,2484.7514922618866
3092,2485.4914889335632
3093,2486.2494854927063
3094,2486.9874823093414
3095,2487.7134788036346
3096,2488.447475671768
3097,2489.1894721984863
3098,2489.9114689826965
3099,2490.6664655208588
3100,2491.401462316513
3101,2492.0904591083527
3102,2492.752456188202
3103,2493.4624528884888
3104,2494.181449651718
3105,2494.8704464435577
3106,2495.5664434432983
3107,2496.263440132141
3108,2496.966437101364
3109,2497.679433822632
3110,2498.387430667877
3111,2499.073427438736
3112,2499.7454245090485
3113,2500.425421476364
3114,2501.1034183502197
3115,2501.7704153060913
3116,2502.4594123363495
3117,2503.162409067154
3118,2503.8764057159424
3119,2504.6014025211334
3120,2505.2913994789124
3121,2505.979396343231
3122,2506.6613931655884
3123,2507.376389980316
3124,2508.0683867931366
3125,2508.775383710861
3126,2509.487380504608
3127,2510.1693773269653
3128,2510.858374118805
3129,2511.582370996475
3130,2512.3183677196503
3131,2513.030364513397
3132,2513.7583611011505
3133,2514.5023577213287
3134,2515.189354658127
3135,2515.9033513069153
3136,2516.6333482265472
3137,2517.3833446502686
3138,2518.1303412914276
3139,2518.9043378829956
3140,2519.705334186554
3141,2520.4483308792114
3142,2521.1923274993896
3143,2521.955323934555
3144,2522.7133207321167
3145,2523.4373173713684
3146,2524.172313928604
3147,2524.9073107242584
3148,2525.6633071899414
3149,2526.392303943634
3150,2527.150300502777
3151,2527.919296979904
3152,2528.6752936840057
3153,2529.4472901821136
3154,2530.196286678314
3155,2530.9672832489014
3156,2531.7082798480988
3157,2532.4582765102386
3158,2533.224272966385
3159,2533.986269712448
3160,2534.734266281128
3161,2535.5312626361847
3162,2536.32425904274
3163,2537.108255624771
3164,2537.866252183914
3165,2538.623248577118
3166,2539.3922452926636
3167,2540.143241882324
3168,2540.9092383384705
3169,2541.6692349910736
3170,2542.4122314453125
3171,2543.179228067398
3172,2543.9662244319916
3173,2544.7462210655212
3174,2545.4992175102234
3175,2546.2712140083313
3176,2547.0452105998993
3177,2547.7872071266174
3178,2548.535203933716
3179,2549.2812004089355
3180,2550.040197134018
3181,2550.7651937007904
3182,2551.5141904354095
3183,2552.2731869220734
3184,2553.035183429718
3185,2553.7671802043915
3186,2554.5091767311096
3187,2555.2491734027863
3188,2555.9591703414917
3189,2556.6711671352386
3190,2557.4001636505127
3191,2558.122160434723
3192,2558.8411571979523
3193,2559.591153860092
3194,2560.341150522232
3195,2561.0711472034454
3196,2561.8261437416077
3197,2562.570140361786
3198,2563.3001370429993
3199,2564.0141339302063
3200,2564.7501304149628
3201,2565.4841272830963
3202,2566.195123910904
3203,2566.912120819092
3204,2567.6361174583435
3205,2568.3701140880585
3206,2569.091110944748
3207,2569.8321075439453
3208,2570.5601041316986
3209,2571.249101161957
3210,2571.933098077774
3211,2572.6340947151184
3212,2573.33309173584
3213,2574.020088672638
3214,2574.729085445404
3215,2575.4590821266174
3216,2576.175078868866
3217,2576.8940756320953
3218,2577.6140723228455
3219,2578.330069065094
3220,2579.042065858841
3221,2579.7740626335144
3222,2580.5020592212677
3223,2581.2040560245514
3224,2581.9030528068542
3225,2582.608049631119
3226,2583.282046556473
3227,2583.9670436382294
3228,2584.6240406036377
3229,2585.297037601471
3230,2585.968034505844
3231,2586.633031606674
3232,2587.3130283355713
3233,2588.017025232315
3234,2588.7200219631195
3235,2589.408019065857
3236,2590.115015745163
3237,2590.8330125808716
3238,2591.5160093307495
3239,2592.1920063495636
3240,2592.8830032348633
3241,2593.5530002117157
3242,2594.2029972076416
3243,2594.847994327545
3244,2595.511991262436
3245,2596.184988260269
3246,2596.8549852371216
3247,2597.537982225418
3248,2598.2489790916443
3249,2598.9559757709503
3250,2599.649972677231
3251,2600.3659694194794
3252,2601.097966194153
3253,2601.8029630184174
3254,2602.5199596881866
3255,2603.2439563274384
3256,2603.953953266144
3257,2604.6309502124786
3258,2605.3159470558167
3259,2606.0229437351227
3260,2606.7349405288696
3261,2607.4249374866486
3262,2608.138934135437
3263,2608.874930858612
3264,2609.5829277038574
3265,2610.298924446106
3266,2611.0259211063385
3267,2611.741917848587
3268,2612.428914785385
3269,2613.118911743164
3270,2613.817908525467
3271,2614.4989054203033
3272,2615.180902481079
3273,2615.879899263382
3274,2616.5818960666656
3275,2617.2828929424286
3276,2617.986889600754
3277,2618.708886384964
3278,2619.4138832092285
3279,2620.0898802280426
3280,2620.786877155304
3281,2621.4978737831116
3282,2622.183870792389
3283,2622.8618676662445
3284,2623.5468645095825
3285,2624.2148616313934
3286,2624.8738584518433
3287,2625.5578553676605
3288,2626.2668521404266
3289,2626.966849088669
3290,2627.6768457889557
3291,2628.41184258461
3292,2629.1358392238617
3293,2629.830836057663
3294,2630.5488328933716
3295,2631.2698295116425
3296,2631.965826511383
3297,2632.637823343277
3298,2633.3018205165863
3299,2633.97381734848
3300,2634.637814283371
3301,2635.292811393738
3302,2635.989808320999
3303,2636.677805185318
3304,2637.3668019771576
3305,2638.0577988624573
3306,2638.774795770645
3307,2639.495792388916
3308,2640.2017891407013
3309,2640.9097859859467
3310,2641.6187827587128
3311,2642.351779460907
3312,2643.0647761821747
3313,2643.7677731513977
3314,2644.495769739151
3315,2645.233766555786
3316,2645.951763153076
3317,2646.677759885788
3318,2647.451756477356
3319,2648.1977529525757
3320,2648.913749933243
3321,2649.6457464694977
3322,2650.383743286133
3323,2651.1327397823334
3324,2651.8787364959717
3325,2652.6407330036163
3326,2653.3987295627594
3327,2654.135726213455
3328,2654.8777227401733
3329,2655.6247193813324
3330,2656.388715982437
3331,2657.122712612152
3332,2657.8667092323303
3333,2658.619705915451
3334,2659.383702516556
3335,2660.1266992092133
3336,2660.886695623398
3337,2661.6626920700073
3338,2662.426688671112
3339,2663.1916851997375
3340,2663.9526817798615
3341,2664.716678380966
3342,2665.466675043106
3343,2666.2206716537476
3344,2666.9766681194305
3345,2667.78266453743
3346,2668.537661075592
3347,2669.2946577072144
3348,2670.0526542663574
3349,2670.7586510181427
3350,2671.4476478099823
3351,2672.1016449928284
3352,2672.7536420822144
3353,2673.5226385593414
3354,2674.2936351299286
3355,2675.04363155365
3356,2675.784628391266
3357,2676.504625082016
3358,2677.17662191391
3359,2677.8096191883087
3360,2678.442616224289
3361,2679.1236131191254
3362,2679.841609954834
3363,2680.537606716156
3364,2681.2236037254333
3365,2681.9206006526947
3366,2682.6415972709656
3367,2683.411593914032
3368,2684.1735904216766
3369,2684.9325869083405
3370,2685.6825835704803
3371,2686.384580373764
3372,2687.1415770053864
3373,2687.9075734615326
3374,2688.702569961548
3375,2689.4855663776398
3376,2690.2795627117157
3377,2691.1025590896606
3378,2691.940555334091
3379,2692.7745513916016
3380,2693.612547636032
3381,2694.460543870926
3382,2695.3335399627686
3383,2696.1705360412598
3384,2697.0055322647095
3385,2697.8365285396576
3386,2698.6905245780945
3387,2699.5375208854675
3388,2700.365517139435
3389,2701.1895134449005
3390,2702.023509502411
3391,2702.8755056858063
3392,2703.735501766205
3393,2704.55849814415
3394,2705.389494419098
3395,2706.245490550995
3396,2707.111486673355
3397,2707.9344828128815
3398,2708.7574791908264
3399,2709.609475374222
3400,2710.475471496582
3401,2711.3034677505493
3402,2712.144463777542
3403,2712.9994599819183
3404,2713.883455991745
3405,2714.7324521541595
3406,2715.6074481010437
3407,2716.4654443264008
3408,2717.3384404182434
3409,2718.2044365406036
3410,2719.038432598114
3411,2719.883428812027
3412,2720.725425004959
3413,2721.5444214344025
3414,2722.3134179115295
3415,2723.1074142456055
3416,2723.9124104976654
3417,2724.7624068260193
3418,2725.5784029960632
3419,2726.396399497986
3420,2727.21239566803
3421,2728.004392147064
3422,2728.8063883781433
3423,2729.6533846855164
3424,2730.512380838394
3425,2731.333377122879
3426,2732.154373407364
3427,2733.0333693027496
3428,2733.910365343094
3429,2734.7733614444733
3430,2735.6363575458527
3431,2736.486353635788
3432,2737.3153500556946
3433,2738.1473462581635
3434,2738.983342409134
3435,2739.8083386421204
3436,2740.6173350811005
3437,2741.4373314380646
3438,2742.2663276195526
3439,2743.0973238945007
3440,2743.938320159912
3441,2744.7853162288666
3442,2745.618312358856
3443,2746.425308704376
3444,2747.251305103302
3445,2748.071301460266
3446,2748.865297794342
3447,2749.6742939949036
3448,2750.493290424347
3449,2751.3342866897583
3450,2752.14328289032
3451,2752.9912791252136
3452,2753.8442752361298
3453,2754.70827126503
3454,2755.5382676124573
3455,2756.398263692856
3456,2757.2522597312927
3457,2758.115255832672
3458,2758.9432520866394
3459,2759.792248249054
3460,2760.648244380951
3461,2761.503240585327
3462,2762.3092370033264
3463,2763.1372332572937
3464,2763.96222949028
3465,2764.7662258148193
3466,2765.5752222537994
3467,2766.38321852684
3468,2767.193214893341
3469,2767.963211297989
3470,2768.704208135605
3471,2769.383204936981
3472,2770.1372015476227
3473,2771.0081975460052
3474,2771.83119392395
3475,2772.6401901245117
3476,2773.4261865615845
3477,2774.198183298111
3478,2774.9551796913147
3479,2775.7071764469147
3480,2776.4661729335785
3481,2777.2211694717407
3482,2777.986166000366
3483,2778.742162704468
3484,2779.5031592845917
3485,2780.2751557826996
3486,2781.0481522083282
3487,2781.823148727417
3488,2782.6011452674866
3489,2783.3981416225433
3490,2784.212137937546
3491,2785.041134119034
3492,2785.886130332947
3493,2786.714126586914
3494,2787.5261228084564
3495,2788.3361191749573
3496,2789.1661155223846
3497,2789.9861118793488
3498,2790.8291079998016
3499,2791.703104019165
3500,2792.5291001796722
3501,2793.3700964450836
3502,2794.222092628479
3503,2795.040088891983
3504,2795.9000849723816
3505,2796.7700810432434
3506,2797.6280772686005
3507,2798.4730734825134
3508,2799.3430695533752
3509,2800.189065694809
3510,2800.96906208992
3511,2801.7390587329865
3512,2802.485055208206
3513,2803.236051797867
3514,2803.9530487060547
3515,2804.668045282364
3516,2805.417042016983
3517,2806.1790385246277
3518,2806.970034837723
3519,2807.7740314006805
3520,2808.523027896881
3521,2809.2580246925354
3522,2809.988021373749
3523,2810.73801779747
3524,2811.4780144691467
3525,2812.167011499405
3526,2812.8960082530975
3527,2813.5550050735474
3528,2814.2070021629333
3529,2814.8419992923737
3530,2815.486996412277
3531,2816.152993440628
3532,2816.8469903469086
3533,2817.527987241745
3534,2818.2329840660095
3535,2818.932980775833
3536,2819.64697766304
3537,2820.3689744472504
3538,2821.082971096039
3539,2821.804967880249
3540,2822.52996468544
3541,2823.282961130142
3542,2824.0589575767517
3543,2824.80695438385
3544,2825.5669507980347
3545,2826.3539474010468
3546,2827.1919434070587
3547,2827.984939813614
3548,2828.790936231613
3549,2829.586932659149
3550,2830.3679292201996
3551,2831.133925676346
3552,2831.9179220199585
3553,2832.711918592453
3554,2833.5109148025513
3555,2834.2439115047455
3556,2834.9569084644318
3557,2835.636905193329
3558,2836.3929018974304
3559,2837.1408984661102
3560,2837.877895116806
3561,2838.6428916454315
3562,2839.4278881549835
3563,2840.2098846435547
3564,2840.985881090164
3565,2841.7508776187897
3566,2842.494874238968
3567,2843.1938710212708
3568,2843.9278678894043
3569,2844.592864751816
3570,2845.246861934662
3571,2845.8898589611053
3572,2846.523856163025
3573,2847.1388533115387
3574,2847.7348506450653
3575,2848.3378479480743
3576,2848.9628450870514
3577,2849.5908422470093
3578,2850.2238392829895
3579,2850.855836391449
3580,2851.482833623886
3581,2852.1338307857513
3582,2852.797827720642
3583,2853.461824655533
3584,2854.124821662903
3585,2854.761818885803
3586,2855.400815963745
3587,2856.039813041687
3588,2856.676810026169
3589,2857.3208072185516
3590,2857.966804265976
3591,2858.605801343918
3592,2859.256798505783
3593,2859.9027955532074
3594,2860.5417926311493
3595,2861.1817898750305
3596,2861.8257868289948
3597,2862.4537839889526
3598,2863.0627813339233
3599,2863.6877784729004
3600,2864.2997756004333
3601,2864.9137728214264
3602,2865.522770166397
3603,2866.139767408371
3604,2866.7557644844055
3605,2867.3717617988586
3606,2867.9727590084076
3607,2868.558756351471
3608,2869.1567537784576
3609,2869.756751060486
3610,2870.357748270035
3611,2870.9457457065582
3612,2871.5277428627014
3613,2872.1117403507233
3614,2872.6897377967834
3615,2873.2637350559235
3616,2873.832732439041
3617,2874.4047298431396
3618,2874.9747273921967
3619,2875.5457248687744
3620,2876.1167221069336
3621,2876.682719707489
3622,2877.247717142105
3623,2877.8087146282196
3624,2878.368711948395
3625,2878.9297094345093
3626,2879.490706920624
3627,2880.049704313278
3628,2880.6107017993927
3629,2881.1696994304657
3630,2881.73069691658
3631,2882.288694381714
3632,2882.848691701889
3633,2883.4116892814636
3634,2883.978686571121
3635,2884.548684120178
3636,2885.116681575775
3637,2885.6816790103912
3638,2886.2516763210297
3639,2886.839673757553
3640,2887.4556708335876
3641,2888.07066822052
3642,2888.6786653995514
3643,2889.2926626205444
3644,2889.9056599140167
3645,2890.5206570625305
3646,2891.149654150009
3647,2891.75865149498
3648,2892.372648715973
3649,2892.9716460704803
3650,2893.5686433315277
3651,2894.1716406345367
3652,2894.782637834549
3653,2895.4146349430084
3654,2896.0316321849823
3655,2896.6636292934418
3656,2897.2936265468597
3657,2897.9176235198975
3658,2898.526620864868
3659,2899.141618013382
3660,2899.7716152668
3661,2900.3906123638153
3662,2900.9876096248627
3663,2901.5946068763733
3664,2902.206604242325
3665,2902.8356013298035
3666,2903.4515986442566
3667,2904.0915956497192
3668,2904.725592851639
3669,2905.3535900115967
3670,2905.9575872421265
3671,2906.562584400177
3672,2907.1775817871094
3673,2907.8005788326263
3674,2908.4285759925842
3675,2909.083573102951
3676,2909.710570335388
3677,2910.327567577362
3678,2910.936564683914
3679,2911.578561782837
3680,2912.227558851242
3681,2912.8855559825897
3682,2913.5465528964996
3683,2914.228549718857
3684,2914.9335465431213
3685,2915.6315433979034
3686,2916.3105404376984
3687,2916.961537361145
3688,2917.6445343494415
3689,2918.351531267166
3690,2919.0545279979706
3691,2919.7555248737335
3692,2920.4415216445923
3693,2921.129518508911
3694,2921.81951546669
3695,2922.5085124969482
3696,2923.1765093803406
3697,2923.8725061416626
3698,2924.568503141403
3699,2925.248500108719
3700,2925.9114968776703
3701,2926.5764939785004
3702,2927.264490842819
3703,2927.9514877796173
3704,2928.6224846839905
3705,2929.3074815273285
3706,2929.9854786396027
3707,2930.6604754924774
3708,2931.335472345352
3709,2932.0354692935944
3710,2932.734466075897
3711,2933.422462940216
3712,2934.1324598789215
3713,2934.837456703186
3714,2935.5274534225464
3715,2936.2114503383636
3716,2936.895447254181
3717,2937.582444190979
3718,2938.2664411067963
3719,2938.959438085556
3720,2939.6644349098206
3721,2940.356431722641
3722,2941.0814282894135
3723,2941.7734253406525
3724,2942.441422224045
3725,2943.1214191913605
3726,2943.800415992737
3727,2944.4704129695892
3728,2945.1354100704193
3729,2945.789407014847
3730,2946.415404319763
3731,2947.028401374817
3732,2947.647398710251
3733,2948.2543959617615
3734,2948.8693931102753
3735,2949.4803903102875
3736,2950.092387676239
3737,2950.7023849487305
3738,2951.3243820667267
3739,2951.9333794116974
3740,2952.5443766117096
3741,2953.1583738327026
3742,2953.766371011734
3743,2954.382368326187
3744,2954.9743654727936
3745,2955.557362794876
3746,2956.1473603248596
3747,2956.7623574733734
3748,2957.3843545913696
3749,2958.010351896286
3750,2958.6403489112854
3751,2959.272346019745
3752,2959.9183433055878
3753,2960.5443403720856
3754,2961.1693375110626
3755,2961.7833347320557
3756,2962.4243319034576
3757,2963.0873289108276
3758,2963.779325723648
3759,2964.4763226509094
3760,2965.2243192195892
3761,2965.97531580925
3762,2966.770312309265
3763,2967.5853085517883
3764,2968.4193048477173
3765,2969.2153010368347
3766,2969.994297504425
3767,2970.7662942409515
3768,2971.5062906742096
3769,2972.2372875213623
3770,2972.947284221649
3771,2973.638281106949
3772,2974.357277870178
3773,2975.0662746429443
3774,2975.8152713775635
3775,2976.531268119812
3776,2977.27326464653
3777,2977.9812614917755
3778,2978.6852583885193
3779,2979.372255086899
3780,2980.0622520446777
3781,2980.772248983383
3782,2981.445245742798
3783,2982.1132428646088
3784,2982.783239841461
3785,2983.4372367858887
3786,2984.086233854294
3787,2984.737231016159
3788,2985.3802280426025
3789,2986.025225162506
3790,2986.688222169876
3791,2987.3372192382812
3792,2987.9912161827087
3793,2988.63121342659
3794,2989.278210401535
3795,2989.9202075004578
3796,2990.558204650879
3797,2991.1882016658783
3798,2991.8151988983154
3799,2992.4281961917877
3800,2993.066193342209
3801,2993.7141902446747
3802,2994.3571875095367
3803,2995.009184360504
3804,2995.640181541443
3805,2996.2731788158417
3806,2996.9041759967804
3807,2997.533173084259
3808,2998.1921701431274
3809,2998.8631670475006
3810,2999.506164073944
3811,3000.149161338806
3812,3000.8041582107544
3813,3001.4441554546356
3814,3002.055152654648
3815,3002.6701498031616
3816,3003.305146932602
3817,3003.93514418602
3818,3004.5651412010193
3819,3005.2001383304596
3820,3005.8301355838776
3821,3006.4581327438354
3822,3007.098129749298
3823,3007.731127023697
3824,3008.3691239356995
3825,3008.9961211681366
3826,3009.6111183166504
3827,3010.234115600586
3828,3010.862112760544
3829,3011.492110013962
3830,3012.138107061386
3831,3012.788104057312
3832,3013.4361011981964
3833,3014.089098215103
3834,3014.7380952835083
3835,3015.3970923423767
3836,3016.0580892562866
3837,3016.726086139679
3838,3017.4060831069946
3839,3018.081080198288
3840,3018.77707695961
3841,3019.477073907852
3842,3020.176070690155
3843,3020.88006734848
3844,3021.584064245224
3845,3022.255061149597
3846,3022.932058095932
3847,3023.624055147171
3848,3024.332051753998
3849,3025.0200488567352
3850,3025.741045475006
3851,3026.4520423412323
3852,3027.1750390529633
3853,3027.898035764694
3854,3028.63303232193
3855,3029.3430292606354
3856,3030.0390260219574
3857,3030.755022764206
3858,3031.456019639969
3859,3032.14901638031
3860,3032.828013420105
3861,3033.50501036644
3862,3034.2180070877075
3863,3034.915004014969
3864,3035.661000728607
3865,3036.3299975395203
3866,3037.045994281769
3867,3037.754991054535
3868,3038.4319880008698
3869,3039.1109850406647
3870,3039.778981924057
3871,3040.454978942871
3872,3041.2229754924774
3873,3041.856972694397
3874,3042.61096906662
3875,3043.272966146469
3876,3043.9809629917145
3877,3044.6789598464966
3878,3045.3879566192627
3879,3046.0889534950256
3880,3046.7859501838684
3881,3047.4609472751617
3882,3048.1239442825317
3883,3048.7929413318634
3884,3049.4969379901886
3885,3050.218934774399
3886,3050.937931537628
3887,3051.688928127289
3888,3052.44092464447
3889,3053.1789214611053
3890,3053.9289178848267
3891,3054.6579146385193
3892,3055.373911380768
3893,3056.084908246994
3894,3056.782905101776
3895,3057.4799020290375
3896,3058.1598987579346
3897,3058.8258957862854
3898,3059.459892988205
3899,3060.086890220642
3900,3060.709887266159
3901,3061.334884405136
3902,3061.9638817310333
3903,3062.590878725052
3904,3063.2348759174347
3905,3063.8708729743958
3906,3064.51687002182
3907,3065.135867357254
3908,3065.758864402771
3909,3066.397861480713
3910,3067.038858652115
3911,3067.6808557510376
3912,3068.3298528194427
3913,3068.9728498458862
3914,3069.5848472118378
3915,3070.2008442878723
3916,3070.8658413887024
3917,3071.532838344574
3918,3072.1968352794647
3919,3072.8498322963715
3920,3073.4928295612335
3921,3074.137826681137
3922,3074.7818236351013
3923,3075.436820745468
3924,3076.0808176994324
3925,3076.7268149852753
3926,3077.3898119926453
3927,3078.0468089580536
3928,3078.7178058624268
3929,3079.3958027362823
3930,3080.0657997131348
3931,3080.757796525955
3932,3081.431793689728
3933,3082.149790287018
3934,3082.8547871112823
3935,3083.632783651352
3936,3084.344780445099
3937,3085.066777229309
3938,3085.7717740535736
3939,3086.472770690918
3940,3087.1927676200867
3941,3087.895764350891
3942,3088.58576130867
3943,3089.2787580490112
3944,3089.990754842758
3945,3090.681751728058
3946,3091.3517487049103
3947,3092.0167458057404
3948,3092.678742647171
3949,3093.354739665985
3950,3094.0437364578247
3951,3094.7357335090637
3952,3095.4357302188873
3953,3096.118727207184
3954,3096.803724050522
3955,3097.523720741272
3956,3098.2307176589966
3957,3098.9217145442963
3958,3099.637711286545
3959,3100.367707967758
3960,3101.0847046375275
3961,3101.7877016067505
3962,3102.4856984615326
3963,3103.1816952228546
3964,3103.8606922626495
3965,3104.5436890125275
3966,3105.2066860198975
3967,3105.8726830482483
3968,3106.51168012619
3969,3107.1346774101257
3970,3107.756674528122
3971,3108.38467168808
3972,3109.008668899536
3973,3109.636666059494
3974,3110.2566633224487
3975,3110.8666603565216
3976,3111.4826576709747
3977,3112.107654809952
3978,3112.7416520118713
3979,3113.3806490898132
3980,3114.011646270752
3981,3114.6466434001923
3982,3115.2936403751373
3983,3115.954637527466
3984,3116.5916345119476
3985,3117.2346317768097
3986,3117.8636288642883
3987,3118.492625951767
3988,3119.114623069763
3989,3119.7576203346252
3990,3120.385617494583
3991,3121.0126144886017
3992,3121.6346118450165
3993,3122.258609056473
3994,3122.8476061820984
3995,3123.456603527069
3996,3124.082600593567
3997,3124.7525975704193
3998,3125.4535944461823
3999,3126.1135914325714
4000,3126.7525885105133
4001,3127.421585559845
4002,3128.120582342148
4003,3128.833579301834
4004,3129.5395760536194
4005,3130.2385728359222
4006,3130.939569711685
4007,3131.6205666065216
4008,3132.3405632972717
4009,3133.075560092926
4010,3133.8145565986633
4011,3134.530553340912
4012,3135.282550096512
4013,3136.0575466156006
4014,3136.83154296875
4015,3137.5875396728516
4016,3138.339536190033
4017,3139.0855329036713
4018,3139.831529378891
4019,3140.575525999069
4020,3141.327522754669
4021,3142.0655193328857
4022,3142.7725162506104
4023,3143.453513145447
4024,3144.110510110855
4025,3144.7775070667267
4026,3145.521503686905
4027,3146.2315006256104
4028,3146.9364972114563
4029,3147.615494251251
4030,3148.30549120903
4031,3148.993488073349
4032,3149.6844849586487
4033,3150.357481956482
4034,3151.0444786548615
4035,3151.740475654602
4036,3152.412472486496
4037,3153.0924694538116
4038,3153.778466463089
4039,3154.4654631614685
4040,3155.1664600372314
4041,3155.8614568710327
4042,3156.570453643799
4043,3157.321450471878
4044,3158.0344471931458
4045,3158.730443954468
4046,3159.4074409008026
4047,3160.053437948227
4048,3160.7004351615906
4049,3161.3724319934845
4050,3162.0484290122986
4051,3162.7474257946014
4052,3163.416422843933
4053,3164.093419790268
4054,3164.775416612625
4055,3165.455413579941
4056,3166.1244106292725
4057,3166.7984075546265
4058,3167.4454045295715
4059,3168.118401527405
4060,3168.8663980960846
4061,3169.601394891739
4062,3170.356391429901
4063,3171.0703880786896
4064,3171.8223848342896
4065,3172.503381729126
4066,3173.1943786144257
4067,3173.851375579834
4068,3174.511372566223
4069,3175.169369697571
4070,3175.8313665390015
4071,3176.503363609314
4072,3177.1623606681824
4073,3177.8083577156067
4074,3178.4263548851013
4075,3179.0973517894745
4076,3179.793348789215
4077,3180.565345287323
4078,3181.291342020035
4079,3181.989338874817
4080,3182.6703357696533
4081,3183.3733325004578
4082,3184.057329416275
4083,3184.7543263435364
4084,3185.4753229618073
4085,3186.2053196430206
4086,3186.9363164901733
4087,3187.673313140869
4088,3188.3783099651337
4089,3189.0343070030212
4090,3189.6723041534424
4091,3190.3683009147644
4092,3191.0472977161407
4093,3191.7762944698334
4094,3192.492291212082
4095,3193.1882882118225
4096,3193.8872849941254
4097,3194.5822818279266
4098,3195.287278652191
4099,3196.0032753944397
4100,3196.7302720546722
4101,3197.458268880844
4102,3198.19326543808
4103,3198.9592621326447
4104,3199.7282586097717
4105,3200.47025513649
4106,3201.184252023697
4107,3201.916248559952
4108,3202.7062451839447
4109,3203.453241586685
4110,3204.1902384757996
4111,3204.912235021591
4112,3205.6582317352295
4113,3206.4002282619476
4114,3207.145225048065
4115,3207.895221710205
4116,3208.640218257904
4117,3209.3892147541046
4118,3210.137211561203
4119,3210.871208190918
4120,3211.615204811096
4121,3212.37620139122
4122,3213.1381978988647
4123,3213.8871943950653
4124,3214.6521911621094
4125,3215.433187484741
4126,3216.2121839523315
4127,3216.9641807079315
4128,3217.7091772556305
4129,3218.471173763275
4130,3219.195170402527
4131,3219.903167247772
4132,3220.645164012909
4133,3221.36816072464
4134,3222.069157600403
4135,3222.7951543331146
4136,3223.545150756836
4137,3224.3131473064423
4138,3225.077143907547
4139,3225.881140232086
4140,3226.6591367721558
4141,3227.391133546829
4142,3228.1191301345825
4143,3228.8391268253326
4144,3229.5671236515045
4145,3230.292120218277
4146,3231.0381169319153
4147,3231.7821135520935
4148,3232.4721105098724
4149,3233.2111070156097
4150,3233.9831035137177
4151,3234.79709982872
4152,3235.623096227646
4153,3236.4590923786163
4154,3237.313088655472
4155,3238.1400847434998
4156,3238.9500811100006
4157,3239.705077648163
4158,3240.503074169159
4159,3241.305070400238
4160,3242.103066921234
4161,3242.872063398361
4162,3243.6780598163605
4163,3244.5890555381775
4164,3245.2620525360107
4165,3246.0180492401123
4166,3246.8440454006195
4167,3247.673041820526
4168,3248.524037837982
4169,3249.35303401947
4170,3250.1240305900574
4171,3250.916027069092
4172,3251.673023700714
4173,3252.397020339966
4174,3253.108017206192
4175,3253.855013847351
4176,3254.6070103645325
4177,3255.3630068302155
4178,3256.1130034923553
4179,3256.8510003089905
4180,3257.580996990204
4181,3258.275993824005
4182,3259.0179903507233
4183,3259.7479870319366
4184,3260.4989836215973
4185,3261.251980304718
4186,3261.9869768619537
4187,3262.710973739624
4188,3263.4249703884125
4189,3264.183967113495
4190,3264.9239637851715
4191,3265.6799602508545
4192,3266.441956758499
4193,3267.2129533290863
4194,3267.9869499206543
4195,3268.758946418762
4196,3269.509943008423
4197,3270.2639396190643
4198,3271.0319361686707
4199,3271.8379323482513
4200,3272.615928888321
4201,3273.454925060272
4202,3274.2359216213226
4203,3275.099917650223
4204,3275.9339139461517
4205,3276.7289102077484
4206,3277.5219066143036
4207,3278.3679027557373
4208,3279.1988990306854
4209,3280.062895298004
4210,3280.8828914165497
4211,3281.710887670517
4212,3282.5628838539124
4213,3283.413880109787
4214,3284.2578761577606
4215,3285.1168723106384
4216,3285.9118688106537
4217,3286.712865114212
4218,3287.495861530304
4219,3288.2878580093384
4220,3289.0438544750214
4221,3289.7688512802124
4222,3290.4448482990265
4223,3291.0828454494476
4224,3291.812842130661
4225,3292.5018389225006
4226,3293.1898357868195
4227,3293.870832681656
4228,3294.5528297424316
4229,3295.2008266448975
4230,3295.893823623657
4231,3296.5648205280304
4232,3297.209817647934
4233,3297.9038145542145
4234,3298.5428116321564
4235,3299.2298085689545
4236,3299.871805667877
4237,3300.545802593231
4238,3301.1837997436523
4239,3301.858796596527
4240,3302.5147936344147
4241,3303.1437907218933
4242,3303.7867879867554
4243,3304.4577848911285
4244,3305.1107819080353
4245,3305.7807788848877
4246,3306.463775873184
4247,3307.1677725315094
4248,3307.8767693042755
4249,3308.5907661914825
4250,3309.3027629852295
4251,3310.021759748459
4252,3310.7697563171387
4253,3311.5337529182434
4254,3312.3167493343353
4255,3313.0627460479736
4256,3313.844742298126
4257,3314.608738899231
4258,3315.3597354888916
4259,3316.1307320594788
4260,3316.8957285881042
4261,3317.5827255249023
4262,3318.314722299576
4263,3319.031718969345
4264,3319.781715631485
4265,3320.5167121887207
4266,3321.251708984375
4267,3321.974705696106
4268,3322.7147023677826
4269,3323.4516990184784
4270,3324.238695383072
4271,3324.9516921043396
4272,3325.624689102173
4273,3326.3376858234406
4274,3327.032682657242
4275,3327.769679546356
4276,3328.4386763572693
4277,3329.167673110962
4278,3329.8646700382233
4279,3330.596666574478
4280,3331.316663503647
4281,3332.031660079956
4282,3332.7366569042206
4283,3333.4886536598206
4284,3334.2826499938965
4285,3335.094646215439
4286,3335.838642835617
4287,3336.553639650345
4288,3337.239636659622
4289,3337.9616334438324
4290,3338.6606302261353
4291,3339.361627101898
4292,3340.08762383461
4293,3340.8726201057434
4294,3341.7146162986755
4295,3342.4536130428314
4296,3343.158609867096
4297,3343.851606607437
4298,3344.508603811264
4299,3345.1516008377075
4300,3345.807597875595
4301,3346.5645945072174
4302,3347.304591178894
4303,3348.0095880031586
4304,3348.7085847854614
4305,3349.4175815582275
4306,3350.123578310013
4307,3350.8245751857758
4308,3351.5375719070435
4309,3352.2475686073303
4310,3352.9495656490326
4311,3353.6405625343323
4312,3354.3575592041016
4313,3355.0675559043884
4314,3355.797552585602
4315,3356.5125494003296
4316,3357.2135462760925
4317,3357.908543109894
4318,3358.5725400447845
4319,3359.2355370521545
4320,3359.9255340099335
4321,3360.6115307807922
4322,3361.342527627945
4323,3362.060524225235
4324,3362.760521173477
4325,3363.4765179157257
4326,3364.196514606476
4327,3364.9395112991333
4328,3365.689507961273
4329,3366.4495043754578
4330,3367.1775012016296
4331,3367.9024980068207
4332,3368.6124947071075
4333,3369.3364913463593
4334,3370.00448846817
4335,3370.739485025406
4336,3371.4684817790985
4337,3372.2754781246185
4338,3373.1184742450714
4339,3373.8814709186554
4340,3374.6534674167633
4341,3375.415463924408
4342,3376.1414606571198
4343,3376.877457380295
4344,3377.66845369339
4345,3378.6024494171143
4346,3379.3784461021423
4347,3380.1684424877167
4348,3380.950438976288
4349,3381.714435338974
4350,3382.4894318580627
4351,3383.257428407669
4352,3383.9864251613617
4353,3384.705421924591
4354,3385.4244186878204
4355,3386.165415287018
4356,3386.9404118061066
4357,3387.7254083156586
4358,3388.5304045677185
4359,3389.333400964737
4360,3390.1343972682953
4361,3390.935393810272
4362,3391.729390144348
4363,3392.51238656044
4364,3393.3063831329346
4365,3394.096379518509
4366,3394.8373761177063
4367,3395.575372695923
4368,3396.321369409561
4369,3397.0533661842346
4370,3397.769362926483
4371,3398.4373598098755
4372,3399.1003568172455
4373,3399.957352876663
4374,3400.7773492336273
4375,3401.601345539093
4376,3402.4153418540955
4377,3403.2413380146027
4378,3404.066334247589
4379,3404.8973305225372
4380,3405.6893270015717
4381,3406.4803235530853
4382,3407.2683198451996
4383,3408.0543162822723
4384,3408.8353128433228
4385,3409.6023092269897
4386,3410.338305950165
4387,3411.0813026428223
4388,3411.819299221039
4389,3412.5612959861755
4390,3413.2812926769257
4391,3414.0292892456055
4392,3414.760286092758
4393,3415.533282518387
4394,3416.277279138565
4395,3416.9852759838104
4396,3417.714272737503
4397,3418.4522693157196
4398,3419.219265937805
4399,3419.9742624759674
4400,3420.774258852005
4401,3421.59325504303
4402,3422.4142513275146
4403,3423.1922478675842
4404,3424.0222442150116
4405,3424.8282403945923
4406,3425.63023686409
4407,3426.462233066559
4408,3427.296229362488
4409,3428.1172256469727
4410,3428.9092218875885
4411,3429.723218202591
4412,3430.485214948654
4413,3431.2502114772797
4414,3431.9872081279755
4415,3432.74920463562
4416,3433.524201154709
4417,3434.3241975307465
4418,3435.136193752289
4419,3435.9331901073456
4420,3436.72518658638
4421,3437.491183280945
4422,3438.2381796836853
4423,3439.0221762657166
4424,3439.806172609329
4425,3440.55716919899
4426,3441.3071658611298
4427,3442.076162338257
4428,3442.860158920288
4429,3443.6611552238464
4430,3444.4381518363953
4431,3445.1771483421326
4432,3445.925145149231
4433,3446.6731417179108
4434,3447.441138267517
4435,3448.2121345996857
4436,3448.9841310977936
4437,3449.7371277809143
4438,3450.504124403
4439,3451.246120929718
4440,3452.015117406845
4441,3452.8061139583588
4442,3453.55811047554
4443,3454.3341069221497
4444,3455.107103586197
4445,3455.8961000442505
4446,3456.629096508026
4447,3457.3780932426453
4448,3458.1300897598267
4449,3458.86008644104
4450,3459.5900831222534
4451,3460.346079826355
4452,3461.1250762939453
4453,3461.8590729236603
4454,3462.6090695858
4455,3463.365066051483
4456,3464.137062549591
4457,3464.8830592632294
4458,3465.625056028366
4459,3466.405052423477
4460,3467.1840488910675
4461,3467.9480454921722
4462,3468.6920421123505
4463,3469.4590384960175
4464,3470.239035129547
4465,3470.9940316677094
4466,3471.71502828598
4467,3472.4140253067017
4468,3473.119022130966
4469,3473.8680186271667
4470,3474.60001540184
4471,3475.3550119400024
4472,3476.0960085392
4473,3476.8170053958893
4474,3477.5750019550323
4475,3478.350998401642
4476,3479.1039950847626
4477,3479.8459916114807
4478,3480.5939881801605
4479,3481.3329849243164
4480,3482.086981534958
4481,3482.820978164673
4482,3483.5689747333527
4483,3484.2969715595245
4484,3485.0339682102203
4485,3485.762964963913
4486,3486.491961479187
4487,3487.2109582424164
4488,3487.915955066681
4489,3488.6179518699646
4490,3489.322948694229
4491,3490.026945590973
4492,3490.7319424152374
4493,3491.455939054489
4494,3492.20893573761
4495,3493.0039319992065
4496,3493.8389282226562
4497,3494.6329247951508
4498,3495.3779213428497
4499,3496.131917953491
4500,3496.8779146671295
4501,3497.662910938263
4502,3498.423907518387
4503,3499.194904088974
4504,3500.028900384903
4505,3500.892896413803
4506,3501.6528930664062
4507,3502.423889398575
4508,3503.1498861312866
4509,3503.8998827934265
4510,3504.6248795986176
4511,3505.3608763217926
4512,3506.0978729724884
4513,3506.8908693790436
4514,3507.6488659381866
4515,3508.387862443924
4516,3509.137859106064
4517,3509.8788557052612
4518,3510.6488523483276
4519,3511.3688490390778
4520,3512.096845626831
4521,3512.8288424015045
4522,3513.555839061737
4523,3514.2768359184265
4524,3514.9998326301575
4525,3515.715829372406
4526,3516.4238262176514
4527,3517.1408228874207
4528,3517.860819578171
4529,3518.571816444397
4530,3519.27281332016
4531,3519.9808101654053
4532,3520.7008068561554
4533,3521.437803506851
4534,3522.1548001766205
4535,3522.813797235489
4536,3523.4667942523956
4537,3524.1077914237976
4538,3524.814788341522
4539,3525.5057849884033
4540,3526.200782060623
4541,3526.9097788333893
4542,3527.6127755641937
4543,3528.3197724819183
4544,3529.021769285202
4545,3529.7277660369873
4546,3530.4287629127502
4547,3531.1347596645355
4548,3531.8447563648224
4549,3532.560753107071
4550,3533.288749933243
4551,3534.0047466754913
4552,3534.7277433872223
4553,3535.4277403354645
4554,3536.129737138748
4555,3536.842733860016
4556,3537.560730457306
4557,3538.309727191925
4558,3539.024724006653
4559,3539.780720472336
4560,3540.4977173805237
4561,3541.26571393013
4562,3542.035710334778
4563,3542.8167068958282
4564,3543.576703310013
4565,3544.3187000751495
4566,3545.0766966342926
4567,3545.853693008423
4568,3546.6256895065308
4569,3547.4086859226227
4570,3548.1446826457977
4571,3548.8606793880463
4572,3549.5966761112213
4573,3550.31467294693
4574,3551.0686695575714
4575,3551.8496658802032
4576,3552.611662387848
4577,3553.350659132004
4578,3554.110655784607
4579,3554.920652151108
4580,3555.7366483211517
4581,3556.504644870758
4582,3557.2696413993835
4583,3557.9946382045746
4584,3558.7316348552704
4585,3559.4646315574646
4586,3560.3346276283264
4587,3561.1626238822937
4588,3561.9086203575134
4589,3562.6816170215607
4590,3563.4216136932373
4591,3564.1466102600098
4592,3564.8536071777344
4593,3565.6306035518646
4594,3566.4815998077393
4595,3567.240596294403
4596,3568.0335927009583
4597,3568.810589313507
4598,3569.6115856170654
4599,3570.3505823612213
4600,3571.1185789108276
4601,3571.8585753440857
4602,3572.6475718021393
4603,3573.4315683841705
4604,3574.2025649547577
4605,3574.9695613384247
4606,3575.745557785034
4607,3576.4925544261932
4608,3577.2475509643555
4609,3577.9865477085114
4610,3578.7465443611145
4611,3579.5595405101776
4612,3580.3935368061066
4613,3581.1425335407257
4614,3581.905529975891
4615,3582.693526506424
4616,3583.4395229816437
4617,3584.1925196647644
4618,3584.943516254425
4619,3585.702512741089
4620,3586.4335095882416
4621,3587.231505870819
4622,3588.052502155304
4623,3588.825498819351
4624,3589.6394951343536
4625,3590.4464914798737
4626,3591.2294878959656
4627,3592.0114843845367
4628,3592.793480873108
4629,3593.571477174759
4630,3594.3144738674164
4631,3595.0504705905914
4632,3595.7974672317505
4633,3596.51646399498
4634,3597.228460788727
4635,3597.9444575309753
4636,3598.7024540901184
4637,3599.467450618744
4638,3600.2134470939636
4639,3600.9494438171387
4640,3601.7024405002594
4641,3602.45343708992
4642,3603.1864337921143
4643,3603.9654302597046
4644,3604.7364268302917
4645,3605.475423336029
4646,3606.2044200897217
4647,3606.934416770935
4648,3607.6634135246277
4649,3608.344410419464
4650,3609.08140707016
4651,3609.7854039669037
4652,3610.504400730133
4653,3611.2043974399567
4654,3611.9193942546844
4655,3612.6423909664154
4656,3613.3483877182007
4657,3614.064384460449
4658,3614.7983813285828
4659,3615.5333778858185
4660,3616.265374660492
4661,3616.9783713817596
4662,3617.7023680210114
4663,3618.436364889145
4664,3619.143361568451
4665,3619.8613584041595
4666,3620.600354909897
4667,3621.347351551056
4668,3622.067348241806
4669,3622.8013451099396
4670,3623.523341655731
4671,3624.2723383903503
4672,3625.0053350925446
4673,3625.806331396103
4674,3626.57732796669
4675,3627.2663247585297
4676,3627.9193217754364
4677,3628.5873188972473
4678,3629.4543149471283
4679,3630.224311351776
4680,3630.98730802536
4681,3631.7473046779633
4682,3632.507301092148
4683,3633.2742977142334
4684,3634.0452942848206
4685,3634.810290813446
4686,3635.5372874736786
4687,3636.23028421402
4688,3636.927281141281
4689,3637.6302778720856
4690,3638.348274707794
4691,3639.0922713279724
4692,3639.8472678661346
4693,3640.595264673233
4694,3641.338261127472
4695,3642.073257923126
4696,3642.822254419327
4697,3643.5832509994507
4698,3644.337247610092
4699,3645.0892441272736
4700,3645.867240667343
4701,3646.6602370738983
4702,3647.4852333068848
4703,3648.267229795456
4704,3649.090226173401
4705,3649.8642225265503
4706,3650.6942188739777
4707,3651.44921541214
4708,3652.233211994171
4709,3653.0482082366943
4710,3653.801204919815
4711,3654.579201221466
4712,3655.3981976509094
4713,3656.1681940555573
4714,3657.019190311432
4715,3657.8221867084503
4716,3658.6571829319
4717,3659.4471793174744
4718,3660.246175765991
4719,3661.089171886444
4720,3661.88316822052
4721,3662.742164373398
4722,3663.5061609745026
4723,3664.3031573295593
4724,3665.1111536026
4725,3665.886150121689
4726,3666.6861464977264
4727,3667.513142824173
4728,3668.3051393032074
4729,3669.0741357803345
4730,3669.8761320114136
4731,3670.673128604889
4732,3671.45112490654
4733,3672.268121242523
4734,3673.0741176605225
4735,3673.849114179611
4736,3674.635110616684
4737,3675.417107105255
4738,3676.18110370636
4739,3676.934100151062
4740,3677.7230966091156
4741,3678.516093015671
4742,3679.3290894031525
4743,3680.102085828781
4744,3680.882082462311
4745,3681.6360788345337
4746,3682.4050755500793
4747,3683.1380722522736
4748,3683.887068748474
4749,3684.6420652866364
4750,3685.4050619602203
4751,3686.1480584144592
4752,3686.9130551815033
4753,3687.65105175972
4754,3688.3500485420227
4755,3689.0400454998016
4756,3689.7740421295166
4757,3690.501038789749
4758,3691.2390356063843
4759,3691.9480323791504
4760,3692.6690289974213
4761,3693.38702583313
4762,3694.1130225658417
4763,3694.8120193481445
4764,3695.501016139984
4765,3696.1900131702423
4766,3696.9070098400116
4767,3697.62300658226
4768,3698.3690032958984
4769,3699.142999649048
4770,3699.902996301651
4771,3700.6799929142
4772,3701.4519894123077
4773,3702.2359857559204
4774,3703.0039823055267
4775,3703.7739787101746
4776,3704.552975177765
4777,3705.339971780777
4778,3706.1139681339264
4779,3706.8849647045135
4780,3707.714961051941
4781,3708.502957344055
4782,3709.396953344345
4783,3710.2519495487213
4784,3711.0639457702637
4785,3711.8599421977997
4786,3712.6569385528564
4787,3713.4669349193573
4788,3714.2749314308167
4789,3715.127927541733
4790,3715.917923927307
4791,3716.773920059204
4792,3717.5419166088104
4793,3718.2899131774902
4794,3719.013909816742
4795,3719.7559065818787
4796,3720.56490278244
4797,3721.400899171829
4798,3722.2758951187134
4799,3723.0708916187286
4800,3723.9148876667023
4801,3724.662884235382
4802,3725.4298808574677
4803,3726.189877510071
4804,3726.9388740062714
4805,3727.678870677948
4806,3728.4248673915863
4807,3729.175863981247
4808,3729.9148604869843
4809,3730.6468572616577
4810,3731.3588540554047
4811,3732.086850643158
4812,3732.813847541809
4813,3733.555844068527
4814,3734.306840658188
4815,3735.028837442398
4816,3735.7578341960907
4817,3736.53183054924
4818,3737.3398270606995
4819,3738.126823425293
4820,3738.8998198509216
4821,3739.667816400528
4822,3740.4328129291534
4823,3741.2068095207214
4824,3741.990805864334
4825,3742.7688024044037
4826,3743.572798728943
4827,3744.332795381546
4828,3745.1117918491364
4829,3745.9017882347107
4830,3746.6907846927643
4831,3747.4487812519073
4832,3748.196777820587
4833,3748.9427745342255
4834,3749.6817712783813
4835,3750.4097678661346
4836,3751.144764661789
4837,3751.8827612400055
4838,3752.606757879257
4839,3753.3507544994354
4840,3754.092751264572
4841,3754.839747905731
4842,3755.560744524002
4843,3756.2957413196564
4844,3757.0267379283905
4845,3757.7627346515656
4846,3758.4747314453125
4847,3759.191728115082
4848,3759.9227249622345
4849,3760.65572142601
4850,3761.3787183761597
4851,3762.1217148303986
4852,3762.850711584091
4853,3763.565708398819
4854,3764.3027050495148
4855,3765.0377016067505
4856,3765.7896983623505
4857,3766.5106949806213
4858,3767.274691581726
4859,3768.0416882038116
4860,3768.780684709549
4861,3769.5336813926697
4862,3770.304677963257
4863,3771.0536744594574
4864,3771.8546710014343
4865,3772.6236674785614
4866,3773.3896639347076
4867,3774.1406605243683
4868,3774.893657207489
4869,3775.6426537036896
4870,3776.3916504383087
4871,3777.144646883011
4872,3777.8996436595917
4873,3778.6366403102875
4874,3779.4116365909576
4875,3780.194633245468
4876,3780.950629711151
4877,3781.6956264972687
4878,3782.4526228904724
4879,3783.208619594574
4880,3783.9166164398193
4881,3784.632613182068
4882,3785.361609697342
4883,3786.1666061878204
4884,3786.9146027565002
4885,3787.691599369049
4886,3788.4535958766937
4887,3789.200592517853
4888,3789.918589115143
4889,3790.656585931778
4890,3791.399582386017
4891,3792.1285791397095
4892,3792.8395760059357
4893,3793.5625727176666
4894,3794.29056930542
4895,3795.0195660591125
4896,3795.738562822342
4897,3796.4645595550537
4898,3797.2265560626984
4899,3797.9755527973175
4900,3798.7215492725372
4901,3799.455546140671
4902,3800.1955428123474
4903,3800.9235394001007
4904,3801.6395361423492
4905,3802.3755328655243
4906,3803.1315293312073
4907,3803.8455262184143
4908,3804.5625228881836
4909,3805.27551984787
4910,3806.020516395569
4911,3806.7435131073
4912,3807.506509542465
4913,3808.2655062675476
4914,3809.0075027942657
4915,3809.7604994773865
4916,3810.520495891571
4917,3811.2574927806854
4918,3812.0004892349243
4919,3812.7414860725403
4920,3813.473482608795
4921,3814.202479362488
4922,3814.9314761161804
4923,3815.6644728183746
4924,3816.379469394684
4925,3817.109466314316
4926,3817.8424627780914
4927,3818.579459667206
4928,3819.3154561519623
4929,3820.076452732086
4930,3820.8094494342804
4931,3821.549446105957
4932,3822.3054428100586
4933,3823.0154395103455
4934,3823.7574360370636
4935,3824.4854328632355
4936,3825.2024295330048
4937,3825.943426132202
4938,3826.6754229068756
4939,3827.3984196186066
4940,3828.1244163513184
4941,3828.867413043976
4942,3829.6204097270966
4943,3830.35040640831
4944,3831.0904030799866
4945,3831.845399618149
4946,3832.576396226883
4947,3833.315392971039
4948,3834.056389570236
4949,3834.7613863945007
4950,3835.472383260727
4951,3836.1803798675537
4952,3836.901376724243
4953,3837.6013734340668
4954,3838.3063702583313
4955,3839.0163671970367
4956,3839.77436375618
4957,3840.586359977722
4958,3841.3193566799164
4959,3842.1373529434204
4960,3842.882349729538
4961,3843.630346298218
4962,3844.3803429603577
4963,3845.146339416504
4964,3845.9103360176086
4965,3846.663332462311
4966,3847.431329011917
4967,3848.229325532913
4968,3848.961322069168
4969,3849.762318611145
4970,3850.499315261841
4971,3851.268311738968
4972,3852.007308483124
4973,3852.7613048553467
4974,3853.5483014583588
4975,3854.3022980690002
4976,3855.053294658661
4977,3855.8482909202576
4978,3856.5972876548767
4979,3857.352284193039
4980,3858.1112806797028
4981,3858.868277311325
4982,3859.63227391243
4983,3860.387270450592
4984,3861.1442670822144
4985,3861.895263671875
4986,3862.639260292053
4987,3863.388256788254
4988,3864.147253513336
4989,3864.9562497138977
4990,3865.6932463645935
4991,3866.4612429142
4992,3867.229239463806
4993,3867.9842360019684
4994,3868.7412326335907
4995,3869.4992291927338
4996,3870.2492258548737
4997,3870.9892225265503
4998,3871.728219270706
4999,3872.4802157878876
5000,3873.2012124061584
5001,3873.9472091197968
5002,3874.6952056884766
5003,3875.4152023792267
5004,3876.163199186325
5005,3876.9121956825256
5006,3877.6481924057007
5007,3878.3871891498566
5008,3879.125185728073
5009,3879.862182378769
5010,3880.58717918396
5011,3881.3011758327484
5012,3882.0471725463867
5013,3882.767169237137
5014,3883.500165939331
5015,3884.2511625289917
5016,3885.014158964157
5017,3885.740155696869
5018,3886.4961524009705
5019,3887.2551488876343
5020,3887.9801456928253
5021,3888.7111423015594
5022,3889.46213889122
5023,3890.201135635376
5024,3890.940132379532
5025,3891.696128845215
5026,3892.431125640869
5027,3893.1481223106384
5028,3893.891119003296
5029,3894.6391155719757
5030,3895.3431124687195
5031,3896.076108932495
5032,3896.8251056671143
5033,3897.5561022758484
5034,3898.2800991535187
5035,3899.03409576416
5036,3899.768092393875
5037,3900.494089126587
5038,3901.2240858078003
5039,3901.9580824375153
5040,3902.6640791893005
5041,3903.3860759735107
5042,3904.1010727882385
5043,3904.8320693969727
5044,3905.556066274643
5045,3906.2860629558563
5046,3907.0300595760345
5047,3907.7420563697815
5048,3908.482053041458
5049,3909.203049659729
5050,3909.8970465660095
5051,3910.5710434913635
5052,3911.2360405921936
5053,3911.9270372390747
5054,3912.659034013748
5055,3913.3860306739807
5056,3914.110027551651
5057,3914.842024087906
5058,3915.5790207386017
5059,3916.289017677307
5060,3917.002014398575
5061,3917.7170112133026
5062,3918.4080080986023
5063,3919.075005054474
5064,3919.737002134323
5065,3920.4029989242554
5066,3921.0789959430695
5067,3921.77099275589
5068,3922.473989725113
5069,3923.1899864673615
5070,3923.919983148575
5071,3924.65597987175
5072,3925.399976491928
5073,3926.119973182678
5074,3926.805969953537
5075,3927.5019669532776
5076,3928.215963602066
5077,3928.97896027565
5078,3929.72895693779
5079,3930.5099532604218
5080,3931.3039498329163
5081,3932.120945930481
5082,3932.9209423065186
5083,3933.749938726425
5084,3934.590934753418
5085,3935.3959312438965
5086,3936.198927640915
5087,3936.9889240264893
5088,3937.7789204120636
5089,3938.5609169006348
5090,3939.328913450241
5091,3940.0839099884033
5092,3940.8629064559937
5093,3941.6429028511047
5094,3942.4388992786407
5095,3943.2168958187103
5096,3944.0568919181824
5097,3944.869888305664
5098,3945.6508848667145
5099,3946.426881313324
5100,3947.219877719879
5101,3947.9738743305206
5102,3948.736870765686
5103,3949.4958674907684
5104,3950.2428641319275
5105,3950.972860813141
5106,3951.725857257843
5107,3952.4588539600372
5108,3953.184850692749
5109,3953.9258472919464
5110,3954.670844078064
5111,3955.417840719223
5112,3956.1558372974396
5113,3956.87783408165
5114,3957.624830722809
5115,3958.381827354431
5116,3959.1418237686157
5117,3959.871820449829
5118,3960.643816947937
5119,3961.4168136119843
5120,3962.2018098831177
5121,3962.944806575775
5122,3963.718803167343
5123,3964.501799583435
5124,3965.2457962036133
5125,3966.020792722702
5126,3966.7967891693115
5127,3967.5337858200073
5128,3968.308782339096
5129,3969.080778837204
5130,3969.829775571823
5131,3970.577772140503
5132,3971.3377685546875
5133,3972.09676527977
5134,3972.827761888504
5135,3973.5927584171295
5136,3974.3407549858093
5137,3975.079751729965
5138,3975.818748474121
5139,3976.5597450733185
5140,3977.2797417640686
5141,3977.998738527298
5142,3978.740735054016
5143,3979.449732065201
5144,3980.16672873497
5145,3980.903725385666
5146,3981.645721912384
5147,3982.3537187576294
5148,3983.094715356827
5149,3983.853712081909
5150,3984.5677087306976
5151,3985.3227055072784
5152,3986.0787019729614
5153,3986.802698612213
5154,3987.4996955394745
5155,3988.1876924037933
5156,3988.8886892795563
5157,3989.5956859588623
5158,3990.2966828346252
